TIME,EDA,HR,TEMP,PHASE
13:38:50,1.6096139999999999,82.89,35.15,1-2
13:38:50,1.6096139999999999,82.89,35.15,1-2
13:38:50,1.608334,82.89,35.15,1-2
13:38:50,1.6096139999999999,82.89,35.15,1-2
13:38:51,1.608334,84.4,35.15,1-2
13:38:51,1.608334,84.4,35.15,1-2
13:38:51,1.6134549999999999,84.4,35.15,1-2
13:38:51,1.6134549999999999,84.4,35.15,1-2
13:38:52,1.6134549999999999,85.73,35.13,1-2
13:38:52,1.6134549999999999,85.73,35.13,1-2
13:38:52,1.618576,85.73,35.13,1-2
13:38:52,1.616015,85.73,35.13,1-2
13:38:53,1.614735,86.83,35.15,1-2
13:38:53,1.6134549999999999,86.83,35.15,1-2
13:38:53,1.612175,86.83,35.15,1-2
13:38:53,1.608334,86.83,35.15,1-2
13:38:54,1.607054,87.62,35.13,1-2
13:38:54,1.605774,87.62,35.13,1-2
13:38:54,1.604494,87.62,35.13,1-2
13:38:54,1.605774,87.62,35.13,1-2
13:38:55,1.600653,88.36,35.15,1-2
13:38:55,1.599373,88.36,35.15,1-2
13:38:55,1.598093,88.36,35.15,1-2
13:38:55,1.594252,88.36,35.15,1-2
13:38:56,1.595533,89.0,35.16,1-2
13:38:56,1.5968129999999998,89.0,35.16,1-2
13:38:56,1.5929719999999998,89.0,35.16,1-2
13:38:56,1.591692,89.0,35.16,1-2
13:38:57,1.587852,89.56,35.15,1-2
13:38:57,1.589132,89.56,35.15,1-2
13:38:57,1.587852,89.56,35.15,1-2
13:38:57,1.586571,89.56,35.15,1-2
13:38:58,1.585291,90.0,35.15,1-2
13:38:58,1.585291,90.0,35.15,1-2
13:38:58,1.5827309999999999,90.0,35.15,1-2
13:38:58,1.586571,90.0,35.15,1-2
13:38:59,1.581451,90.33,35.15,1-2
13:38:59,1.5827309999999999,90.33,35.15,1-2
13:38:59,1.57761,90.33,35.15,1-2
13:38:59,1.57633,90.33,35.15,1-2
13:39:00,1.57633,90.53,35.15,1-2
13:39:00,1.5737700000000001,90.53,35.15,1-2
13:39:00,1.5699290000000001,90.53,35.15,1-2
13:39:00,1.5699290000000001,90.53,35.15,1-2
13:39:01,1.571209,90.7,35.13,1-2
13:39:01,1.571209,90.7,35.13,1-2
13:39:01,1.568649,90.7,35.13,1-2
13:39:01,1.5660889999999998,90.7,35.13,1-2
13:39:02,1.563528,90.81,35.13,1-2
13:39:02,1.5660889999999998,90.81,35.13,1-2
13:39:02,1.5609680000000001,90.81,35.13,1-2
13:39:02,1.559688,90.81,35.13,1-2
13:39:03,1.559688,90.91,35.13,1-2
13:39:03,1.554567,90.91,35.13,1-2
13:39:03,1.554567,90.91,35.13,1-2
13:39:03,1.552007,90.91,35.13,1-2
13:39:04,1.548166,91.04,35.13,1-2
13:39:04,1.546886,91.04,35.13,1-2
13:39:04,1.543045,91.04,35.13,1-2
13:39:04,1.544325,91.04,35.13,1-2
13:39:05,1.541765,91.21,35.15,1-2
13:39:05,1.540485,91.21,35.15,1-2
13:39:05,1.540485,91.21,35.15,1-2
13:39:05,1.540485,91.21,35.15,1-2
13:39:06,1.539205,91.4,35.15,1-2
13:39:06,1.5366440000000001,91.4,35.15,1-2
13:39:06,1.534084,91.4,35.15,1-2
13:39:06,1.532804,91.4,35.15,1-2
13:39:07,1.540485,91.58,35.16,1-2
13:39:07,1.5571270000000001,91.58,35.16,1-2
13:39:07,1.57889,91.58,35.16,1-2
13:39:07,1.604494,91.58,35.16,1-2
13:39:08,1.627537,91.78,35.15,1-2
13:39:08,1.6390580000000001,91.78,35.15,1-2
13:39:08,1.6493,91.78,35.15,1-2
13:39:08,1.645459,91.78,35.15,1-2
13:39:09,1.642899,91.96,35.16,1-2
13:39:09,1.637778,91.96,35.16,1-2
13:39:09,1.637778,91.96,35.16,1-2
13:39:09,1.604494,91.96,35.16,1-2
13:39:10,1.50336,92.14,35.15,1-2
13:39:10,1.540485,92.14,35.15,1-2
13:39:10,1.545606,92.14,35.15,1-2
13:39:10,1.5366440000000001,92.14,35.15,1-2
13:39:11,1.5315239999999999,92.27,35.16,1-2
13:39:11,1.5289629999999998,92.27,35.16,1-2
13:39:11,1.5289629999999998,92.27,35.16,1-2
13:39:11,1.520002,92.27,35.16,1-2
13:39:12,1.520002,92.45,35.15,1-2
13:39:12,1.516162,92.45,35.15,1-2
13:39:12,1.516162,92.45,35.15,1-2
13:39:12,1.516162,92.45,35.15,1-2
13:39:13,1.5097610000000001,92.62,35.13,1-2
13:39:13,1.5072,92.62,35.13,1-2
13:39:13,1.50336,92.62,35.13,1-2
13:39:13,1.5008,92.62,35.13,1-2
13:39:14,1.496959,92.76,35.13,1-2
13:39:14,1.494399,92.76,35.13,1-2
13:39:14,1.491838,92.76,35.13,1-2
13:39:14,1.489278,92.76,35.13,1-2
13:39:15,1.482877,92.88,35.15,1-2
13:39:15,1.472636,92.88,35.15,1-2
13:39:15,1.464955,92.88,35.15,1-2
13:39:15,1.455993,92.88,35.15,1-2
13:39:16,1.4470319999999999,92.97,35.13,1-2
13:39:16,1.4470319999999999,92.97,35.13,1-2
13:39:16,1.436791,92.97,35.13,1-2
13:39:16,1.43295,92.97,35.13,1-2
13:39:17,1.4252690000000001,92.94,35.13,1-2
13:39:17,1.421429,92.94,35.13,1-2
13:39:17,1.413748,92.94,35.13,1-2
13:39:17,1.404786,92.94,35.13,1-2
13:39:18,1.399666,92.95,35.13,1-2
13:39:18,1.3945450000000001,92.95,35.13,1-2
13:39:18,1.388144,92.95,35.13,1-2
13:39:18,1.381743,92.95,35.13,1-2
13:39:19,1.3740620000000001,92.97,35.13,1-2
13:39:19,1.3663809999999998,92.97,35.13,1-2
13:39:19,1.361261,92.97,35.13,1-2
13:39:19,1.35742,92.97,35.13,1-2
13:39:20,1.351019,93.0,35.13,1-2
13:39:20,1.344618,93.0,35.13,1-2
13:39:20,1.340778,93.0,35.13,1-2
13:39:20,1.336937,93.0,35.13,1-2
13:39:21,1.3343770000000001,93.0,35.13,1-2
13:39:21,1.333097,93.0,35.13,1-2
13:39:21,1.324135,93.0,35.13,1-2
13:39:21,1.320295,93.0,35.13,1-2
13:39:22,1.316454,93.05,35.11,1-2
13:39:22,1.312614,93.05,35.11,1-2
13:39:22,1.3138940000000001,93.05,35.11,1-2
13:39:22,1.310054,93.05,35.11,1-2
13:39:23,1.307493,93.07,35.11,1-2
13:39:23,1.3023719999999999,93.07,35.11,1-2
13:39:23,1.2998120000000002,93.07,35.11,1-2
13:39:23,1.295972,93.07,35.11,1-2
13:39:24,1.294691,93.09,35.13,1-2
13:39:24,1.289571,93.09,35.13,1-2
13:39:24,1.288291,93.09,35.13,1-2
13:39:24,1.2831700000000001,93.09,35.13,1-2
13:39:25,1.28189,93.09,35.13,1-2
13:39:25,1.276769,93.09,35.13,1-2
13:39:25,1.272928,93.09,35.13,1-2
13:39:25,1.267808,93.09,35.13,1-2
13:39:26,1.266528,93.13,35.13,1-2
13:39:26,1.261407,93.13,35.13,1-2
13:39:26,1.2588469999999998,93.13,35.13,1-2
13:39:26,1.2537260000000001,93.13,35.13,1-2
13:39:27,1.251166,93.26,35.13,1-2
13:39:27,1.247325,93.26,35.13,1-2
13:39:27,1.244765,93.26,35.13,1-2
13:39:27,1.239644,93.26,35.13,1-2
13:39:28,1.239644,93.4,35.13,1-2
13:39:28,1.238364,93.4,35.13,1-2
13:39:28,1.233243,93.4,35.13,1-2
13:39:28,1.230683,93.4,35.13,1-2
13:39:29,1.230683,93.54,35.13,1-2
13:39:29,1.229403,93.54,35.13,1-2
13:39:29,1.225562,93.54,35.13,1-2
13:39:29,1.2217209999999998,93.54,35.13,1-2
13:39:30,1.2191610000000002,93.47,35.13,1-2
13:39:30,1.21276,93.47,35.13,1-2
13:39:30,1.21148,93.47,35.13,1-2
13:39:30,1.2102,93.47,35.13,1-2
13:39:31,1.205079,93.4,35.13,1-2
13:39:31,1.205079,93.4,35.13,1-2
13:39:31,1.199958,93.4,35.13,1-2
13:39:31,1.196118,93.4,35.13,1-2
13:39:32,1.1948379999999998,93.33,35.13,1-2
13:39:32,1.193558,93.33,35.13,1-2
13:39:32,1.1884370000000002,93.33,35.13,1-2
13:39:32,1.182036,93.33,35.13,1-2
13:39:33,1.184596,93.27,35.11,1-2
13:39:33,1.183316,93.27,35.11,1-2
13:39:33,1.178195,93.27,35.11,1-2
13:39:33,1.175635,93.27,35.11,1-2
13:39:34,1.1717950000000001,93.21,35.13,1-2
13:39:34,1.1717950000000001,93.21,35.13,1-2
13:39:34,1.169234,93.21,35.13,1-2
13:39:34,1.1679540000000002,93.21,35.13,1-2
13:39:35,1.1679540000000002,93.13,35.11,1-2
13:39:35,1.162833,93.13,35.11,1-2
13:39:35,1.1602729999999999,93.13,35.11,1-2
13:39:35,1.155152,93.13,35.11,1-2
13:39:36,1.153872,93.09,35.11,1-2
13:39:36,1.152592,93.09,35.11,1-2
13:39:36,1.150032,93.09,35.11,1-2
13:39:36,1.146191,93.09,35.11,1-2
13:39:37,1.148751,93.02,35.11,1-2
13:39:37,1.146191,93.02,35.11,1-2
13:39:37,1.1436309999999998,93.02,35.11,1-2
13:39:37,1.1423510000000001,93.02,35.11,1-2
13:39:38,1.13723,93.11,35.09,1-2
13:39:38,1.133389,93.11,35.09,1-2
13:39:38,1.13467,93.11,35.09,1-2
13:39:38,1.132109,93.11,35.09,1-2
13:39:39,1.128269,93.17,35.11,1-2
13:39:39,1.124428,93.17,35.11,1-2
13:39:39,1.120588,93.17,35.11,1-2
13:39:39,1.119308,93.17,35.11,1-2
13:39:40,1.119308,93.34,35.11,1-2
13:39:40,1.118027,93.34,35.11,1-2
13:39:40,1.116747,93.34,35.11,1-2
13:39:40,1.115467,93.34,35.11,1-2
13:39:41,1.111626,93.5,35.11,1-2
13:39:41,1.1090659999999999,93.5,35.11,1-2
13:39:41,1.1103459999999998,93.5,35.11,1-2
13:39:41,1.1039450000000002,93.5,35.11,1-2
13:39:42,1.1039450000000002,93.9,35.11,1-2
13:39:42,1.097545,93.9,35.11,1-2
13:39:42,1.096264,93.9,35.11,1-2
13:39:42,1.096264,93.9,35.11,1-2
13:39:43,1.094984,94.12,35.09,1-2
13:39:43,1.088583,94.12,35.09,1-2
13:39:43,1.0911440000000001,94.12,35.09,1-2
13:39:43,1.0873030000000001,94.12,35.09,1-2
13:39:44,1.088583,94.53,35.07,1-2
13:39:44,1.084743,94.53,35.07,1-2
13:39:44,1.084743,94.53,35.07,1-2
13:39:44,1.0796219999999999,94.53,35.07,1-2
13:39:45,1.0770620000000002,95.35,35.11,1-2
13:39:45,1.075782,95.35,35.11,1-2
13:39:45,1.073221,95.35,35.11,1-2
13:39:45,1.070661,95.35,35.11,1-2
13:39:46,1.070661,96.12,35.11,1-2
13:39:46,1.070661,96.12,35.11,1-2
13:39:46,1.069381,96.12,35.11,1-2
13:39:46,1.06426,96.12,35.11,1-2
13:39:47,1.06298,96.15,35.09,1-2
13:39:47,1.06554,96.15,35.09,1-2
13:39:47,1.060419,96.15,35.09,1-2
13:39:47,1.055299,96.15,35.09,1-2
13:39:48,1.054019,96.07,35.09,1-2
13:39:48,1.051458,96.07,35.09,1-2
13:39:48,1.047618,96.07,35.09,1-2
13:39:48,1.046337,96.07,35.09,1-2
13:39:49,1.045057,96.02,35.11,1-2
13:39:49,1.046337,96.02,35.11,1-2
13:39:49,1.046337,96.02,35.11,1-2
13:39:49,1.042497,96.02,35.11,1-2
13:39:50,1.043777,95.98,35.11,1-2
13:39:50,1.041217,95.98,35.11,1-2
13:39:50,1.034816,95.98,35.11,1-2
13:39:50,1.034816,95.98,35.11,1-2
13:39:51,1.0322559999999998,96.07,35.09,1-2
13:39:51,1.029695,96.07,35.09,1-2
13:39:51,1.0284149999999999,96.07,35.09,1-2
13:39:51,1.0284149999999999,96.07,35.09,1-2
13:39:52,1.0284149999999999,96.13,35.09,1-2
13:39:52,1.025855,96.13,35.09,1-2
13:39:52,1.025855,96.13,35.09,1-2
13:39:52,1.020734,96.13,35.09,1-2
13:39:53,1.019454,96.2,35.09,1-2
13:39:53,1.014333,96.2,35.09,1-2
13:39:53,1.014333,96.2,35.09,1-2
13:39:53,1.011773,96.2,35.09,1-2
13:39:54,1.007932,96.3,35.09,1-2
13:39:54,1.006652,96.3,35.09,1-2
13:39:54,1.004092,96.3,35.09,1-2
13:39:54,1.000251,96.3,35.09,1-2
13:39:55,1.001531,96.38,35.11,1-2
13:39:55,0.9989709999999999,96.38,35.11,1-2
13:39:55,0.997691,96.38,35.11,1-2
13:39:55,0.996411,96.38,35.11,1-2
13:39:56,0.995131,96.53,35.11,1-2
13:39:56,0.996411,96.53,35.11,1-2
13:39:56,0.99129,96.53,35.11,1-2
13:39:56,0.9900100000000001,96.53,35.11,1-2
13:39:57,0.987449,96.68,35.09,1-2
13:39:57,0.9887299999999999,96.68,35.09,1-2
13:39:57,0.9887299999999999,96.68,35.09,1-2
13:39:57,0.987449,96.68,35.09,1-2
13:39:58,0.9836090000000001,96.82,35.11,1-2
13:39:58,0.977208,96.82,35.11,1-2
13:39:58,0.975928,96.82,35.11,1-2
13:39:58,0.974648,96.82,35.11,1-2
13:39:59,0.973368,96.97,35.11,1-2
13:39:59,0.970807,96.97,35.11,1-2
13:39:59,0.968247,96.97,35.11,1-2
13:39:59,0.968247,96.97,35.11,1-2
13:40:00,0.966967,97.15,35.09,1-2
13:40:00,0.964406,97.15,35.09,1-2
13:40:00,0.964406,97.15,35.09,1-2
13:40:00,0.963126,97.15,35.09,1-2
13:40:01,0.993751,97.33,35.07,1-2
13:40:01,0.9924709999999999,97.33,35.07,1-2
13:40:01,0.9911909999999999,97.33,35.07,1-2
13:40:01,0.9886309999999999,97.33,35.07,1-2
13:40:02,0.9860700000000001,97.5,35.09,1-2
13:40:02,0.9847899999999999,97.5,35.09,1-2
13:40:02,0.9860700000000001,97.5,35.09,1-2
13:40:02,0.9822299999999999,97.5,35.09,1-2
13:40:03,0.98095,97.62,35.07,1-2
13:40:03,0.978389,97.62,35.07,1-2
13:40:03,0.977109,97.62,35.07,1-2
13:40:03,0.9758290000000001,97.62,35.07,1-2
13:40:04,0.974549,97.72,35.07,1-2
13:40:04,0.971988,97.72,35.07,1-2
13:40:04,0.971988,97.72,35.07,1-2
13:40:04,0.9694280000000001,97.72,35.07,1-2
13:40:05,0.9668680000000001,97.8,35.07,1-2
13:40:05,0.9694280000000001,97.8,35.07,1-2
13:40:05,0.964307,97.8,35.07,1-2
13:40:05,0.960467,97.8,35.07,1-2
13:40:06,0.9617469999999999,97.87,35.09,1-2
13:40:06,0.9617469999999999,97.87,35.09,1-2
13:40:06,0.960467,97.87,35.09,1-2
13:40:06,0.9591870000000001,97.87,35.09,1-2
13:40:07,0.9579059999999999,97.92,35.09,1-2
13:40:07,0.956626,97.92,35.09,1-2
13:40:07,0.954066,97.92,35.09,1-2
13:40:07,0.9553459999999999,97.92,35.09,1-2
13:40:08,0.9553459999999999,97.95,35.07,1-2
13:40:08,0.948945,97.95,35.07,1-2
13:40:08,0.948945,97.95,35.07,1-2
13:40:08,0.948945,97.95,35.07,1-2
13:40:09,0.946385,97.97,35.09,1-2
13:40:09,0.947665,97.97,35.09,1-2
13:40:09,0.945105,97.97,35.09,1-2
13:40:09,0.946385,97.97,35.09,1-2
13:40:10,0.942544,98.0,35.07,1-2
13:40:10,0.941264,98.0,35.07,1-2
13:40:10,0.942544,98.0,35.07,1-2
13:40:10,0.9387040000000001,98.0,35.07,1-2
13:40:11,0.9374239999999999,98.03,35.07,1-2
13:40:11,0.9348629999999999,98.03,35.07,1-2
13:40:11,0.9335829999999999,98.03,35.07,1-2
13:40:11,0.9323030000000001,98.03,35.07,1-2
13:40:12,0.929743,98.12,35.05,1-2
13:40:12,0.9310229999999999,98.12,35.05,1-2
13:40:12,0.9323030000000001,98.12,35.05,1-2
13:40:12,0.929743,98.12,35.05,1-2
13:40:13,0.9246219999999999,98.17,35.09,1-2
13:40:13,0.9246219999999999,98.17,35.09,1-2
13:40:13,0.922062,98.17,35.09,1-2
13:40:13,0.919501,98.17,35.09,1-2
13:40:14,0.919501,98.2,35.07,1-2
13:40:14,0.916941,98.2,35.07,1-2
13:40:14,0.91438,98.2,35.07,1-2
13:40:14,0.9156610000000001,98.2,35.07,1-2
13:40:15,0.9118200000000001,98.23,35.07,1-2
13:40:15,0.91438,98.23,35.07,1-2
13:40:15,0.9131,98.23,35.07,1-2
13:40:15,0.9092600000000001,98.23,35.07,1-2
13:40:16,0.91054,98.28,35.07,1-2
13:40:16,0.91054,98.28,35.07,1-2
13:40:16,0.9092600000000001,98.28,35.07,1-2
13:40:16,0.906699,98.28,35.07,1-2
13:40:17,0.9041389999999999,98.35,35.07,1-2
13:40:17,0.9054190000000001,98.35,35.07,1-2
13:40:17,0.9041389999999999,98.35,35.07,1-2
13:40:17,0.902859,98.35,35.07,1-2
13:40:18,0.9015790000000001,98.37,35.09,1-2
13:40:18,0.900299,98.37,35.09,1-2
13:40:18,0.899018,98.37,35.09,1-2
13:40:18,0.900299,98.37,35.09,1-2
13:40:19,0.8977379999999999,98.37,35.09,1-2
13:40:19,0.895178,98.37,35.09,1-2
13:40:19,0.896458,98.37,35.09,1-2
13:40:19,0.892618,98.37,35.09,1-2
13:40:20,0.892618,98.35,35.05,1-2
13:40:20,0.890057,98.35,35.05,1-2
13:40:20,0.888777,98.35,35.05,1-2
13:40:20,0.886217,98.35,35.05,1-2
13:40:21,0.886217,98.35,35.07,1-2
13:40:21,0.883656,98.35,35.07,1-2
13:40:21,0.882376,98.35,35.07,1-2
13:40:21,0.8810959999999999,98.35,35.07,1-2
13:40:22,0.8810959999999999,98.33,35.07,1-2
13:40:22,0.8810959999999999,98.33,35.07,1-2
13:40:22,0.8798159999999999,98.33,35.07,1-2
13:40:22,0.8772549999999999,98.33,35.07,1-2
13:40:23,0.8746950000000001,98.35,35.07,1-2
13:40:23,0.8734149999999999,98.35,35.07,1-2
13:40:23,0.869574,98.35,35.07,1-2
13:40:23,0.8708549999999999,98.35,35.07,1-2
13:40:24,0.869574,98.37,35.07,1-2
13:40:24,0.872135,98.37,35.07,1-2
13:40:24,0.867014,98.37,35.07,1-2
13:40:24,0.867014,98.37,35.07,1-2
13:40:25,0.867014,98.4,35.07,1-2
13:40:25,0.867014,98.4,35.07,1-2
13:40:25,0.863174,98.4,35.07,1-2
13:40:25,0.863174,98.4,35.07,1-2
13:40:26,0.859333,98.42,35.07,1-2
13:40:26,0.855492,98.42,35.07,1-2
13:40:26,0.856773,98.42,35.07,1-2
13:40:26,0.8542120000000001,98.42,35.07,1-2
13:40:27,0.856773,98.37,35.07,1-2
13:40:27,0.8542120000000001,98.37,35.07,1-2
13:40:27,0.855492,98.37,35.07,1-2
13:40:27,0.852932,98.37,35.07,1-2
13:40:28,0.8542120000000001,98.33,35.07,1-2
13:40:28,0.8503719999999999,98.33,35.07,1-2
13:40:28,0.8465309999999999,98.33,35.07,1-2
13:40:28,0.8465309999999999,98.33,35.07,1-2
13:40:29,0.845251,98.3,35.07,1-2
13:40:29,0.845251,98.3,35.07,1-2
13:40:29,0.842691,98.3,35.07,1-2
13:40:29,0.845251,98.3,35.07,1-2
13:40:30,0.842691,98.4,35.07,1-2
13:40:30,0.841411,98.4,35.07,1-2
13:40:30,0.83885,98.4,35.07,1-2
13:40:30,0.83757,98.4,35.07,1-2
13:40:31,0.8401299999999999,98.47,35.05,1-2
13:40:31,0.83757,98.47,35.05,1-2
13:40:31,0.83373,98.47,35.05,1-2
13:40:31,0.832449,98.47,35.05,1-2
13:40:32,0.832449,98.55,35.05,1-2
13:40:32,0.83373,98.55,35.05,1-2
13:40:32,0.83373,98.55,35.05,1-2
13:40:32,0.829889,98.55,35.05,1-2
13:40:33,0.831169,98.65,35.05,1-2
13:40:33,0.831169,98.65,35.05,1-2
13:40:33,0.8273290000000001,98.65,35.05,1-2
13:40:33,0.826048,98.65,35.05,1-2
13:40:34,0.828609,98.78,35.05,1-2
13:40:34,0.826048,98.78,35.05,1-2
13:40:34,0.8234879999999999,98.78,35.05,1-2
13:40:34,0.8234879999999999,98.78,35.05,1-2
13:40:35,0.8222079999999999,98.92,35.05,1-2
13:40:35,0.8209280000000001,98.92,35.05,1-2
13:40:35,0.8209280000000001,98.92,35.05,1-2
13:40:35,0.8196479999999999,98.92,35.05,1-2
13:40:36,0.8209280000000001,99.03,35.05,1-2
13:40:36,0.8196479999999999,99.03,35.05,1-2
13:40:36,0.8196479999999999,99.03,35.05,1-2
13:40:36,0.8209280000000001,99.03,35.05,1-2
13:40:37,0.817087,99.23,35.05,1-2
13:40:37,0.815807,99.23,35.05,1-2
13:40:37,0.814527,99.23,35.05,1-2
13:40:37,0.814527,99.23,35.05,1-2
13:40:38,0.813247,99.3,35.05,1-2
13:40:38,0.814527,99.3,35.05,1-2
13:40:38,0.813247,99.3,35.05,1-2
13:40:38,0.813247,99.3,35.05,1-2
13:40:39,0.811967,99.38,35.07,1-2
13:40:39,0.8094060000000001,99.38,35.07,1-2
13:40:39,0.808126,99.38,35.07,1-2
13:40:39,0.8094060000000001,99.38,35.07,1-2
13:40:40,0.805566,99.35,35.05,1-2
13:40:40,0.8094060000000001,99.35,35.05,1-2
13:40:40,0.808126,99.35,35.05,1-2
13:40:40,0.804285,99.35,35.05,1-2
13:40:41,0.804285,99.32,35.05,1-2
13:40:41,0.805566,99.32,35.05,1-2
13:40:41,0.800445,99.32,35.05,1-2
13:40:41,0.803005,99.32,35.05,1-2
13:40:42,0.801725,99.32,35.05,1-2
13:40:42,0.800445,99.32,35.05,1-2
13:40:42,0.795324,99.32,35.05,1-2
13:40:42,0.7978850000000001,99.32,35.05,1-2
13:40:43,0.7978850000000001,99.33,35.03,1-2
13:40:43,0.795324,99.33,35.03,1-2
13:40:43,0.795324,99.33,35.03,1-2
13:40:43,0.794044,99.33,35.03,1-2
13:40:44,0.790204,99.43,35.05,1-2
13:40:44,0.790204,99.43,35.05,1-2
13:40:44,0.790204,99.43,35.05,1-2
13:40:44,0.791484,99.43,35.05,1-2
13:40:45,0.7889229999999999,99.43,35.03,1-2
13:40:45,0.787643,99.43,35.03,1-2
13:40:45,0.786363,99.43,35.03,1-2
13:40:45,0.786363,99.43,35.03,1-2
13:40:46,0.783803,99.4,35.05,1-2
13:40:46,0.783803,99.4,35.05,1-2
13:40:46,0.782522,99.4,35.05,1-2
13:40:46,0.781242,99.4,35.05,1-2
13:40:47,0.778682,99.33,35.0,1-2
13:40:47,0.779962,99.33,35.0,1-2
13:40:47,0.779962,99.33,35.0,1-2
13:40:47,0.776122,99.33,35.0,1-2
13:40:48,0.774841,99.35,35.03,1-2
13:40:48,0.772281,99.35,35.03,1-2
13:40:48,0.774841,99.35,35.03,1-2
13:40:48,0.772281,99.35,35.03,1-2
13:40:49,0.769721,99.57,35.03,1-2
13:40:49,0.7671600000000001,99.57,35.03,1-2
13:40:49,0.76588,99.57,35.03,1-2
13:40:49,0.76588,99.57,35.03,1-2
13:40:50,0.76588,99.82,35.03,1-2
13:40:50,0.7671600000000001,99.82,35.03,1-2
13:40:50,0.76588,99.82,35.03,1-2
13:40:50,0.76332,99.82,35.03,1-2
13:40:51,0.7646,100.1,35.05,1-2
13:40:51,0.7620399999999999,100.1,35.05,1-2
13:40:51,0.759479,100.1,35.05,1-2
13:40:51,0.76076,100.1,35.05,1-2
13:40:52,0.759479,100.38,35.03,1-2
13:40:52,0.756919,100.38,35.03,1-2
13:40:52,0.758199,100.38,35.03,1-2
13:40:52,0.754359,100.38,35.03,1-2
13:40:53,0.754359,100.63,35.03,1-2
13:40:53,0.756919,100.63,35.03,1-2
13:40:53,0.7556390000000001,100.63,35.03,1-2
13:40:53,0.7556390000000001,100.63,35.03,1-2
13:40:54,0.754359,100.87,35.03,1-2
13:40:54,0.753078,100.87,35.03,1-2
13:40:54,0.753078,100.87,35.03,1-2
13:40:54,0.753078,100.87,35.03,1-2
13:40:55,0.751798,101.12,35.03,1-2
13:40:55,0.751798,101.12,35.03,1-2
13:40:55,0.749238,101.12,35.03,1-2
13:40:55,0.747958,101.12,35.03,1-2
13:40:56,0.746678,101.27,35.03,1-2
13:40:56,0.746678,101.27,35.03,1-2
13:40:56,0.745397,101.27,35.03,1-2
13:40:56,0.746678,101.27,35.03,1-2
13:40:57,0.742837,101.43,35.05,1-2
13:40:57,0.744117,101.43,35.05,1-2
13:40:57,0.742837,101.43,35.05,1-2
13:40:57,0.738997,101.43,35.05,1-2
13:40:58,0.742837,101.63,35.03,1-2
13:40:58,0.737716,101.63,35.03,1-2
13:40:58,0.738997,101.63,35.03,1-2
13:40:58,0.738997,101.63,35.03,1-2
13:40:59,0.737716,101.87,35.03,1-2
13:40:59,0.737716,101.87,35.03,1-2
13:40:59,0.737716,101.87,35.03,1-2
13:40:59,0.737716,101.87,35.03,1-2
13:41:00,0.736436,102.08,35.03,1-2
13:41:00,0.737716,102.08,35.03,1-2
13:41:00,0.738997,102.08,35.03,1-2
13:41:00,0.736436,102.08,35.03,1-2
13:41:01,0.735156,102.27,35.03,1-2
13:41:01,0.732596,102.27,35.03,1-2
13:41:01,0.732596,102.27,35.03,1-2
13:41:01,0.730035,102.27,35.03,1-2
13:41:02,0.726195,102.48,35.03,1-2
13:41:02,0.730035,102.48,35.03,1-2
13:41:02,0.726195,102.48,35.03,1-2
13:41:02,0.724915,102.48,35.03,1-2
13:41:03,0.724915,102.78,35.05,1-2
13:41:03,0.724915,102.78,35.05,1-2
13:41:03,0.721074,102.78,35.05,1-2
13:41:03,0.721074,102.78,35.05,1-2
13:41:04,0.721074,103.03,35.05,1-2
13:41:04,0.7197939999999999,103.03,35.05,1-2
13:41:04,0.715953,103.03,35.05,1-2
13:41:04,0.714673,103.03,35.05,1-2
13:41:05,0.714673,103.28,35.05,1-2
13:41:05,0.713393,103.28,35.05,1-2
13:41:05,0.714673,103.28,35.05,1-2
13:41:05,0.717234,103.28,35.05,1-2
13:41:06,0.714673,103.5,35.05,1-2
13:41:06,0.714673,103.5,35.05,1-2
13:41:06,0.715953,103.5,35.05,1-2
13:41:06,0.717234,103.5,35.05,1-2
13:41:07,0.717234,103.73,35.03,1-2
13:41:07,0.714673,103.73,35.03,1-2
13:41:07,0.715953,103.73,35.03,1-2
13:41:07,0.717234,103.73,35.03,1-2
13:41:08,0.715953,103.95,35.03,1-2
13:41:08,0.718514,103.95,35.03,1-2
13:41:08,0.715953,103.95,35.03,1-2
13:41:08,0.715953,103.95,35.03,1-2
13:41:09,0.715953,104.2,35.03,1-2
13:41:09,0.713393,104.2,35.03,1-2
13:41:09,0.713393,104.2,35.03,1-2
13:41:09,0.712113,104.2,35.03,1-2
13:41:10,0.710833,104.43,35.03,1-2
13:41:10,0.705712,104.43,35.03,1-2
13:41:10,0.703152,104.43,35.03,1-2
13:41:10,0.700591,104.43,35.03,1-2
13:41:11,0.696751,104.68,35.05,1-2
13:41:11,0.695471,104.68,35.05,1-2
13:41:11,0.695471,104.68,35.05,1-2
13:41:11,0.69035,104.68,35.05,1-2
13:41:12,0.69291,104.83,35.03,1-2
13:41:12,0.69163,104.83,35.03,1-2
13:41:12,0.69419,104.83,35.03,1-2
13:41:12,0.68907,104.83,35.03,1-2
13:41:13,0.69035,105.03,35.03,1-2
13:41:13,0.68907,105.03,35.03,1-2
13:41:13,0.68907,105.03,35.03,1-2
13:41:13,0.685229,105.03,35.03,1-2
13:41:14,0.685229,105.28,35.03,1-2
13:41:14,0.685229,105.28,35.03,1-2
13:41:14,0.685229,105.28,35.03,1-2
13:41:14,0.683949,105.28,35.03,1-2
13:41:15,0.683949,105.55,35.0,1-2
13:41:15,0.683949,105.55,35.0,1-2
13:41:15,0.683949,105.55,35.0,1-2
13:41:15,0.681389,105.55,35.0,1-2
13:41:16,0.681389,105.77,35.05,1-2
13:41:16,0.678828,105.77,35.05,1-2
13:41:16,0.674988,105.77,35.05,1-2
13:41:16,0.676268,105.77,35.05,1-2
13:41:17,0.674988,105.98,35.03,1-2
13:41:17,0.674988,105.98,35.03,1-2
13:41:17,0.673708,105.98,35.03,1-2
13:41:17,0.676268,105.98,35.03,1-2
13:41:18,0.674988,106.23,35.0,1-2
13:41:18,0.674988,106.23,35.0,1-2
13:41:18,0.674988,106.23,35.0,1-2
13:41:18,0.672427,106.23,35.0,1-2
13:41:19,0.671147,106.5,35.03,1-2
13:41:19,0.672427,106.5,35.03,1-2
13:41:19,0.667307,106.5,35.03,1-2
13:41:19,0.671147,106.5,35.03,1-2
13:41:20,0.667307,106.78,35.03,1-2
13:41:20,0.667307,106.78,35.03,1-2
13:41:20,0.663466,106.78,35.03,1-2
13:41:20,0.6647460000000001,106.78,35.03,1-2
13:41:21,0.666027,106.98,35.0,1-2
13:41:21,0.6647460000000001,106.98,35.0,1-2
13:41:21,0.663466,106.98,35.0,1-2
13:41:21,0.6621859999999999,106.98,35.0,1-2
13:41:22,0.6647460000000001,107.18,34.99,1-2
13:41:22,0.666027,107.18,34.99,1-2
13:41:22,0.673708,107.18,34.99,1-2
13:41:22,0.673708,107.18,34.99,1-2
13:41:23,0.6775479999999999,107.4,35.03,1-2
13:41:23,0.681389,107.4,35.03,1-2
13:41:23,0.68907,107.4,35.03,1-2
13:41:23,0.696751,107.4,35.03,1-2
13:41:24,0.699311,107.6,35.0,1-2
13:41:24,0.704432,107.6,35.0,1-2
13:41:24,0.699311,107.6,35.0,1-2
13:41:24,0.6980310000000001,107.6,35.0,1-2
13:41:25,0.696751,107.8,35.03,1-2
13:41:25,0.696751,107.8,35.03,1-2
13:41:25,0.695471,107.8,35.03,1-2
13:41:25,0.696751,107.8,35.03,1-2
13:41:26,0.69419,107.97,35.0,1-2
13:41:26,0.69035,107.97,35.0,1-2
13:41:26,0.69035,107.97,35.0,1-2
13:41:26,0.69035,107.97,35.0,1-2
13:41:27,0.68779,108.08,35.03,1-2
13:41:27,0.686509,108.08,35.03,1-2
13:41:27,0.68907,108.08,35.03,1-2
13:41:27,0.686509,108.08,35.03,1-2
13:41:28,0.686509,108.2,35.03,1-2
13:41:28,0.685229,108.2,35.03,1-2
13:41:28,0.683949,108.2,35.03,1-2
13:41:28,0.685229,108.2,35.03,1-2
13:41:29,0.683949,108.28,35.0,1-2
13:41:29,0.681389,108.28,35.0,1-2
13:41:29,0.678828,108.28,35.0,1-2
13:41:29,0.674988,108.28,35.0,1-2
13:41:30,0.676268,108.47,35.0,1-2
13:41:30,0.676268,108.47,35.0,1-2
13:41:30,0.6775479999999999,108.47,35.0,1-2
13:41:30,0.673708,108.47,35.0,1-2
13:41:31,0.673708,108.68,35.03,1-2
13:41:31,0.672427,108.68,35.03,1-2
13:41:31,0.674988,108.68,35.03,1-2
13:41:31,0.672427,108.68,35.03,1-2
13:41:32,0.673708,108.88,35.03,1-2
13:41:32,0.671147,108.88,35.03,1-2
13:41:32,0.672427,108.88,35.03,1-2
13:41:32,0.666027,108.88,35.03,1-2
13:41:33,0.668587,109.07,35.0,1-2
13:41:33,0.666027,109.07,35.0,1-2
13:41:33,0.667307,109.07,35.0,1-2
13:41:33,0.663466,109.07,35.0,1-2
13:41:34,0.6647460000000001,109.2,35.0,1-2
13:41:34,0.663466,109.2,35.0,1-2
13:41:34,0.6621859999999999,109.2,35.0,1-2
13:41:34,0.6621859999999999,109.2,35.0,1-2
13:41:35,0.6621859999999999,109.35,35.0,1-2
13:41:35,0.669867,109.35,35.0,1-2
13:41:35,0.668587,109.35,35.0,1-2
13:41:35,0.674988,109.35,35.0,1-2
13:41:36,0.680108,109.35,34.99,1-2
13:41:36,0.686509,109.35,34.99,1-2
13:41:36,0.68779,109.35,34.99,1-2
13:41:36,0.68907,109.35,34.99,1-2
13:41:37,0.69035,109.3,35.0,1-2
13:41:37,0.69163,109.3,35.0,1-2
13:41:37,0.68779,109.3,35.0,1-2
13:41:37,0.685229,109.3,35.0,1-2
13:41:38,0.683949,109.22,35.0,1-2
13:41:38,0.681389,109.22,35.0,1-2
13:41:38,0.678828,109.22,35.0,1-2
13:41:38,0.6775479999999999,109.22,35.0,1-2
13:41:39,0.676268,109.15,35.03,1-2
13:41:39,0.6775479999999999,109.15,35.03,1-2
13:41:39,0.676268,109.15,35.03,1-2
13:41:39,0.672427,109.15,35.03,1-2
13:41:40,0.676268,109.08,35.03,1-2
13:41:40,0.673708,109.08,35.03,1-2
13:41:40,0.671147,109.08,35.03,1-2
13:41:40,0.669867,109.08,35.03,1-2
13:41:41,0.6647460000000001,109.03,35.0,1-2
13:41:41,0.6647460000000001,109.03,35.0,1-2
13:41:41,0.6621859999999999,109.03,35.0,1-2
13:41:41,0.6621859999999999,109.03,35.0,1-2
13:41:42,0.660906,109.03,35.0,1-2
13:41:42,0.663466,109.03,35.0,1-2
13:41:42,0.663466,109.03,35.0,1-2
13:41:42,0.660906,109.03,35.0,1-2
13:41:43,0.659626,109.05,34.99,1-2
13:41:43,0.658346,109.05,34.99,1-2
13:41:43,0.658346,109.05,34.99,1-2
13:41:43,0.660906,109.05,34.99,1-2
13:41:44,0.6557850000000001,108.98,35.0,1-2
13:41:44,0.654505,108.98,35.0,1-2
13:41:44,0.657065,108.98,35.0,1-2
13:41:44,0.654505,108.98,35.0,1-2
13:41:45,0.6557850000000001,108.93,35.0,1-2
13:41:45,0.658346,108.93,35.0,1-2
13:41:45,0.671147,108.93,35.0,1-2
13:41:45,0.668587,108.93,35.0,1-2
13:41:46,0.649384,108.9,35.0,1-2
13:41:46,0.6557850000000001,108.9,35.0,1-2
13:41:46,0.658346,108.9,35.0,1-2
13:41:46,0.632742,108.9,35.0,1-2
13:41:47,0.572574,109.18,35.03,1-2
13:41:47,0.454798,109.18,35.03,1-2
13:41:47,0.32543099999999997,109.18,35.03,1-2
13:41:47,0.327991,109.18,35.03,1-2
13:41:48,0.342073,109.72,35.0,1-2
13:41:48,0.445767,109.72,35.0,1-2
13:41:48,0.550742,109.72,35.0,1-2
13:41:48,0.622432,109.72,35.0,1-2
13:41:49,0.655716,110.05,35.0,1-2
13:41:49,0.68388,110.05,35.0,1-2
13:41:49,0.690281,110.05,35.0,1-2
13:41:49,0.697962,110.05,35.0,1-2
13:41:50,0.694121,110.47,35.0,1-2
13:41:50,0.689001,110.47,35.0,1-2
13:41:50,0.687721,110.47,35.0,1-2
13:41:50,0.701802,110.47,35.0,1-2
13:41:51,0.709484,110.82,34.99,1-2
13:41:51,0.715884,110.82,34.99,1-2
13:41:51,0.719725,110.82,34.99,1-2
13:41:51,0.723565,110.82,34.99,1-2
13:41:52,0.724846,111.2,34.99,2-3
13:41:52,0.726126,111.2,34.99,2-3
13:41:52,0.729966,111.2,34.99,2-3
13:41:52,0.726126,111.2,34.99,2-3
13:41:53,0.726126,111.6,35.0,2-3
13:41:53,0.724846,111.6,35.0,2-3
13:41:53,0.727406,111.6,35.0,2-3
13:41:53,0.727406,111.6,35.0,2-3
13:41:54,0.728686,112.02,35.0,2-3
13:41:54,0.727406,112.02,35.0,2-3
13:41:54,0.727406,112.02,35.0,2-3
13:41:54,0.727406,112.02,35.0,2-3
13:41:55,0.728686,112.42,35.0,2-3
13:41:55,0.727406,112.42,35.0,2-3
13:41:55,0.726126,112.42,35.0,2-3
13:41:55,0.726126,112.42,35.0,2-3
13:41:56,0.723565,112.85,35.0,2-3
13:41:56,0.724846,112.85,35.0,2-3
13:41:56,0.721005,112.85,35.0,2-3
13:41:56,0.724846,112.85,35.0,2-3
13:41:57,0.7222850000000001,113.15,35.03,2-3
13:41:57,0.724846,113.15,35.03,2-3
13:41:57,0.7222850000000001,113.15,35.03,2-3
13:41:57,0.7222850000000001,113.15,35.03,2-3
13:41:58,0.721005,113.33,35.03,2-3
13:41:58,0.723565,113.33,35.03,2-3
13:41:58,0.721005,113.33,35.03,2-3
13:41:58,0.7171649999999999,113.33,35.03,2-3
13:41:59,0.718445,113.5,34.99,2-3
13:41:59,0.718445,113.5,34.99,2-3
13:41:59,0.718445,113.5,34.99,2-3
13:41:59,0.715884,113.5,34.99,2-3
13:42:00,0.7171649999999999,113.78,35.03,2-3
13:42:00,0.718445,113.78,35.03,2-3
13:42:00,0.7171649999999999,113.78,35.03,2-3
13:42:00,0.7171649999999999,113.78,35.03,2-3
13:42:01,0.715884,113.82,35.0,2-3
13:42:01,0.714604,113.82,35.0,2-3
13:42:01,0.7171649999999999,113.82,35.0,2-3
13:42:01,0.718445,113.82,35.0,2-3
13:42:02,0.718445,113.88,35.0,2-3
13:42:02,0.718445,113.88,35.0,2-3
13:42:02,0.718445,113.88,35.0,2-3
13:42:02,0.721005,113.88,35.0,2-3
13:42:03,0.721005,113.77,35.0,2-3
13:42:03,0.7222850000000001,113.77,35.0,2-3
13:42:03,0.719725,113.77,35.0,2-3
13:42:03,0.721005,113.77,35.0,2-3
13:42:04,0.719725,113.68,35.03,2-3
13:42:04,0.719725,113.68,35.03,2-3
13:42:04,0.719725,113.68,35.03,2-3
13:42:04,0.719725,113.68,35.03,2-3
13:42:05,0.7171649999999999,113.6,35.03,2-3
13:42:05,0.715884,113.6,35.03,2-3
13:42:05,0.714604,113.6,35.03,2-3
13:42:05,0.7171649999999999,113.6,35.03,2-3
13:42:06,0.715884,113.6,35.05,2-3
13:42:06,0.714604,113.6,35.05,2-3
13:42:06,0.713324,113.6,35.05,2-3
13:42:06,0.714604,113.6,35.05,2-3
13:42:07,0.714604,113.5,35.0,2-3
13:42:07,0.714604,113.5,35.0,2-3
13:42:07,0.712044,113.5,35.0,2-3
13:42:07,0.712044,113.5,35.0,2-3
13:42:08,0.708203,113.42,35.03,2-3
13:42:08,0.7107640000000001,113.42,35.03,2-3
13:42:08,0.7107640000000001,113.42,35.03,2-3
13:42:08,0.709484,113.42,35.03,2-3
13:42:09,0.731246,113.2,35.05,2-3
13:42:09,0.7645310000000001,113.2,35.05,2-3
13:42:09,0.761971,113.2,35.05,2-3
13:42:09,0.75813,113.2,35.05,2-3
13:42:10,0.75429,113.02,35.03,2-3
13:42:10,0.75685,113.02,35.03,2-3
13:42:10,0.761971,113.02,35.03,2-3
13:42:10,0.7645310000000001,113.02,35.03,2-3
13:42:11,0.7645310000000001,112.83,35.03,2-3
13:42:11,0.7645310000000001,112.83,35.03,2-3
13:42:11,0.763251,112.83,35.03,2-3
13:42:11,0.763251,112.83,35.03,2-3
13:42:12,0.763251,112.73,35.03,2-3
13:42:12,0.763251,112.73,35.03,2-3
13:42:12,0.767091,112.73,35.03,2-3
13:42:12,0.7645310000000001,112.73,35.03,2-3
13:42:13,0.761971,112.63,35.03,2-3
13:42:13,0.763251,112.63,35.03,2-3
13:42:13,0.763251,112.63,35.03,2-3
13:42:13,0.7645310000000001,112.63,35.03,2-3
13:42:14,0.760691,112.68,35.03,2-3
13:42:14,0.75685,112.68,35.03,2-3
13:42:14,0.75813,112.68,35.03,2-3
13:42:14,0.75685,112.68,35.03,2-3
13:42:15,0.746609,112.8,35.07,2-3
13:42:15,0.761971,112.8,35.07,2-3
13:42:15,0.749169,112.8,35.07,2-3
13:42:15,0.742768,112.8,35.07,2-3
13:42:16,0.7440479999999999,113.05,35.05,2-3
13:42:16,0.714604,113.05,35.05,2-3
13:42:16,0.773492,113.05,35.05,2-3
13:42:16,0.772212,113.05,35.05,2-3
13:42:17,0.75813,113.33,35.07,2-3
13:42:17,0.75813,113.33,35.07,2-3
13:42:17,0.75941,113.33,35.07,2-3
13:42:17,0.745328,113.33,35.07,2-3
13:42:18,0.738928,113.62,35.07,2-3
13:42:18,0.719725,113.62,35.07,2-3
13:42:18,0.704363,113.62,35.07,2-3
13:42:18,0.673639,113.62,35.07,2-3
13:42:19,0.6173109999999999,113.92,35.07,2-3
13:42:19,0.560983,113.92,35.07,2-3
13:42:19,0.494414,113.92,35.07,2-3
13:42:19,0.614751,113.92,35.07,2-3
13:42:20,0.649315,114.2,35.07,2-3
13:42:20,0.655716,114.2,35.07,2-3
13:42:20,0.656996,114.2,35.07,2-3
13:42:20,0.656996,114.2,35.07,2-3
13:42:21,0.671078,114.53,35.05,2-3
13:42:21,0.68516,114.53,35.05,2-3
13:42:21,0.6864399999999999,114.53,35.05,2-3
13:42:21,0.678759,114.53,35.05,2-3
13:42:22,0.692841,114.9,35.05,2-3
13:42:22,0.712044,114.9,35.05,2-3
13:42:22,0.719725,114.9,35.05,2-3
13:42:22,0.704363,114.9,35.05,2-3
13:42:23,0.7107640000000001,115.25,35.05,2-3
13:42:23,0.708203,115.25,35.05,2-3
13:42:23,0.705643,115.25,35.05,2-3
13:42:23,0.708203,115.25,35.05,2-3
13:42:24,0.7107640000000001,115.62,35.07,2-3
13:42:24,0.719725,115.62,35.07,2-3
13:42:24,0.732527,115.62,35.07,2-3
13:42:24,0.751729,115.62,35.07,2-3
13:42:25,0.773492,115.97,35.05,2-3
13:42:25,0.787574,115.97,35.05,2-3
13:42:25,0.796535,115.97,35.05,2-3
13:42:25,0.805497,115.97,35.05,2-3
13:42:26,0.809337,116.33,35.05,2-3
13:42:26,0.8195790000000001,116.33,35.05,2-3
13:42:26,0.8311,116.33,35.05,2-3
13:42:26,0.8349409999999999,116.33,35.05,2-3
13:42:27,0.8323799999999999,116.75,35.07,2-3
13:42:27,0.8349409999999999,116.75,35.07,2-3
13:42:27,0.850303,116.75,35.07,2-3
13:42:27,0.847742,116.75,35.07,2-3
13:42:28,0.845182,116.93,35.07,2-3
13:42:28,0.843902,116.93,35.07,2-3
13:42:28,0.845182,116.93,35.07,2-3
13:42:28,0.846462,116.93,35.07,2-3
13:42:29,0.843902,117.18,35.07,2-3
13:42:29,0.842622,117.18,35.07,2-3
13:42:29,0.841341,117.18,35.07,2-3
13:42:29,0.838781,117.18,35.07,2-3
13:42:30,0.8349409999999999,117.4,35.07,2-3
13:42:30,0.837501,117.4,35.07,2-3
13:42:30,0.841341,117.4,35.07,2-3
13:42:30,0.842622,117.4,35.07,2-3
13:42:31,0.845182,117.67,35.09,2-3
13:42:31,0.846462,117.67,35.09,2-3
13:42:31,0.843902,117.67,35.09,2-3
13:42:31,0.845182,117.67,35.09,2-3
13:42:32,0.8605440000000001,117.25,35.07,2-3
13:42:32,0.8592639999999999,117.25,35.07,2-3
13:42:32,0.8605440000000001,117.25,35.07,2-3
13:42:32,0.8567040000000001,117.25,35.07,2-3
13:42:33,0.8554229999999999,116.85,35.07,2-3
13:42:33,0.851583,116.85,35.07,2-3
13:42:33,0.850303,116.85,35.07,2-3
13:42:33,0.847742,116.85,35.07,2-3
13:42:34,0.847742,116.17,35.07,2-3
13:42:34,0.847742,116.17,35.07,2-3
13:42:34,0.846462,116.17,35.07,2-3
13:42:34,0.846462,116.17,35.07,2-3
13:42:35,0.845182,115.53,35.07,2-3
13:42:35,0.843902,115.53,35.07,2-3
13:42:35,0.8400610000000001,115.53,35.07,2-3
13:42:35,0.842622,115.53,35.07,2-3
13:42:36,0.841341,115.07,35.07,2-3
13:42:36,0.842622,115.07,35.07,2-3
13:42:36,0.8400610000000001,115.07,35.07,2-3
13:42:36,0.838781,115.07,35.07,2-3
13:42:37,0.8362209999999999,114.62,35.07,2-3
13:42:37,0.837501,114.62,35.07,2-3
13:42:37,0.837501,114.62,35.07,2-3
13:42:37,0.8362209999999999,114.62,35.07,2-3
13:42:38,0.8336600000000001,114.18,35.07,2-3
13:42:38,0.8323799999999999,114.18,35.07,2-3
13:42:38,0.82726,114.18,35.07,2-3
13:42:38,0.8259790000000001,114.18,35.07,2-3
13:42:39,0.82726,113.68,35.07,2-3
13:42:39,0.8259790000000001,113.68,35.07,2-3
13:42:39,0.823419,113.68,35.07,2-3
13:42:39,0.822139,113.68,35.07,2-3
13:42:40,0.823419,113.47,35.07,2-3
13:42:40,0.822139,113.47,35.07,2-3
13:42:40,0.8195790000000001,113.47,35.07,2-3
13:42:40,0.820859,113.47,35.07,2-3
13:42:41,0.8195790000000001,113.27,35.05,2-3
13:42:41,0.818298,113.27,35.05,2-3
13:42:41,0.818298,113.27,35.05,2-3
13:42:41,0.818298,113.27,35.05,2-3
13:42:42,0.815738,113.03,35.07,2-3
13:42:42,0.815738,113.03,35.07,2-3
13:42:42,0.817018,113.03,35.07,2-3
13:42:42,0.815738,113.03,35.07,2-3
13:42:43,0.818298,112.83,35.05,2-3
13:42:43,0.8195790000000001,112.83,35.05,2-3
13:42:43,0.8195790000000001,112.83,35.05,2-3
13:42:43,0.820859,112.83,35.05,2-3
13:42:44,0.823419,112.67,35.05,2-3
13:42:44,0.820859,112.67,35.05,2-3
13:42:44,0.822139,112.67,35.05,2-3
13:42:44,0.822139,112.67,35.05,2-3
13:42:45,0.824699,112.48,35.05,2-3
13:42:45,0.8285399999999999,112.48,35.05,2-3
13:42:45,0.8400610000000001,112.48,35.05,2-3
13:42:45,0.8707860000000001,112.48,35.05,2-3
13:42:46,0.898949,112.37,35.05,2-3
13:42:46,0.929674,112.37,35.05,2-3
13:42:46,0.961678,112.37,35.05,2-3
13:42:46,0.988562,112.37,35.05,2-3
13:42:47,1.000083,111.95,35.07,2-3
13:42:47,1.010325,111.95,35.07,2-3
13:42:47,1.006484,111.95,35.07,2-3
13:42:47,1.005204,111.95,35.07,2-3
13:42:48,1.016725,111.28,35.05,2-3
13:42:48,1.034648,111.28,35.05,2-3
13:42:48,1.010394,111.28,35.05,2-3
13:42:48,1.070562,111.28,35.05,2-3
13:42:49,1.1038459999999999,110.62,35.03,2-3
13:42:49,1.1281700000000001,110.62,35.03,2-3
13:42:49,1.137131,110.62,35.03,2-3
13:42:49,1.135851,110.62,35.03,2-3
13:42:50,1.135851,109.85,35.05,2-3
13:42:50,1.1281700000000001,109.85,35.05,2-3
13:42:50,1.140971,109.85,35.05,2-3
13:42:50,1.140971,109.85,35.05,2-3
13:42:51,1.135851,109.03,35.07,2-3
13:42:51,1.121769,109.03,35.07,2-3
13:42:51,1.105127,109.03,35.07,2-3
13:42:51,1.094885,109.03,35.07,2-3
13:42:52,1.085924,108.2,35.05,2-3
13:42:52,1.076963,108.2,35.05,2-3
13:42:52,1.070562,108.2,35.05,2-3
13:42:52,1.061601,108.2,35.05,2-3
13:42:53,1.0552,107.42,35.05,2-3
13:42:53,1.051359,107.42,35.05,2-3
13:42:53,1.048799,107.42,35.05,2-3
13:42:53,1.043678,107.42,35.05,2-3
13:42:54,1.041118,106.65,35.05,2-3
13:42:54,1.037277,106.65,35.05,2-3
13:42:54,1.0359969999999998,106.65,35.05,2-3
13:42:54,1.034717,106.65,35.05,2-3
13:42:55,1.032157,105.9,35.05,2-3
13:42:55,1.032157,105.9,35.05,2-3
13:42:55,1.0308760000000001,105.9,35.05,2-3
13:42:55,1.028316,105.9,35.05,2-3
13:42:56,1.029596,105.17,35.07,2-3
13:42:56,1.0334370000000002,105.17,35.07,2-3
13:42:56,1.037277,105.17,35.07,2-3
13:42:56,1.041118,105.17,35.07,2-3
13:42:57,1.050079,104.55,35.05,2-3
13:42:57,1.0552,104.55,35.05,2-3
13:42:57,1.0552,104.55,35.05,2-3
13:42:57,1.061601,104.55,35.05,2-3
13:42:58,1.061601,104.08,35.05,2-3
13:42:58,1.0603200000000002,104.08,35.05,2-3
13:42:58,1.0641610000000001,104.08,35.05,2-3
13:42:58,1.05904,104.08,35.05,2-3
13:42:59,1.061601,103.58,35.05,2-3
13:42:59,1.05904,103.58,35.05,2-3
13:42:59,1.061601,103.58,35.05,2-3
13:42:59,1.05776,103.58,35.05,2-3
13:43:00,1.05904,102.98,35.05,2-3
13:43:00,1.0564799999999999,102.98,35.05,2-3
13:43:00,1.0552,102.98,35.05,2-3
13:43:00,1.05392,102.98,35.05,2-3
13:43:01,1.0526389999999999,102.68,35.07,2-3
13:43:01,1.05392,102.68,35.07,2-3
13:43:01,1.051359,102.68,35.07,2-3
13:43:01,1.0526389999999999,102.68,35.07,2-3
13:43:02,1.050079,102.35,35.05,2-3
13:43:02,1.048799,102.35,35.05,2-3
13:43:02,1.048799,102.35,35.05,2-3
13:43:02,1.047519,102.35,35.05,2-3
13:43:03,1.044958,102.17,35.03,2-3
13:43:03,1.046239,102.17,35.03,2-3
13:43:03,1.043678,102.17,35.03,2-3
13:43:03,1.041118,102.17,35.03,2-3
13:43:04,1.038557,101.98,35.05,2-3
13:43:04,1.037277,101.98,35.05,2-3
13:43:04,1.034717,101.98,35.05,2-3
13:43:04,1.034717,101.98,35.05,2-3
13:43:05,1.0334370000000002,101.78,35.05,2-3
13:43:05,1.0308760000000001,101.78,35.05,2-3
13:43:05,1.029596,101.78,35.05,2-3
13:43:05,1.025756,101.78,35.05,2-3
13:43:06,1.028316,101.52,35.05,2-3
13:43:06,1.021915,101.52,35.05,2-3
13:43:06,1.020635,101.52,35.05,2-3
13:43:06,1.019355,101.52,35.05,2-3
13:43:07,1.018075,101.33,35.05,2-3
13:43:07,1.0129540000000001,101.33,35.05,2-3
13:43:07,1.009113,101.33,35.05,2-3
13:43:07,1.011674,101.33,35.05,2-3
13:43:08,1.007833,101.15,35.05,2-3
13:43:08,1.009113,101.15,35.05,2-3
13:43:08,1.006553,101.15,35.05,2-3
13:43:08,1.0052729999999999,101.15,35.05,2-3
13:43:09,1.0014319999999999,101.07,35.07,2-3
13:43:09,1.0014319999999999,101.07,35.07,2-3
13:43:09,0.998872,101.07,35.07,2-3
13:43:09,0.9963120000000001,101.07,35.07,2-3
13:43:10,0.997592,100.95,35.07,2-3
13:43:10,0.997592,100.95,35.07,2-3
13:43:10,0.998872,100.95,35.07,2-3
13:43:10,0.998872,100.95,35.07,2-3
13:43:11,0.998872,100.85,35.05,2-3
13:43:11,0.9963120000000001,100.85,35.05,2-3
13:43:11,0.9963120000000001,100.85,35.05,2-3
13:43:11,0.993751,100.85,35.05,2-3
13:43:12,0.9950319999999999,100.68,35.05,2-3
13:43:12,0.9950319999999999,100.68,35.05,2-3
13:43:12,0.9924709999999999,100.68,35.05,2-3
13:43:12,0.9886309999999999,100.68,35.05,2-3
13:43:13,0.98735,100.5,35.05,2-3
13:43:13,0.98735,100.5,35.05,2-3
13:43:13,0.98351,100.5,35.05,2-3
13:43:13,0.98351,100.5,35.05,2-3
13:43:14,0.9822299999999999,100.15,35.05,2-3
13:43:14,0.9847899999999999,100.15,35.05,2-3
13:43:14,0.978389,100.15,35.05,2-3
13:43:14,0.979669,100.15,35.05,2-3
13:43:15,0.9822299999999999,99.72,35.03,2-3
13:43:15,0.98095,99.72,35.03,2-3
13:43:15,0.98095,99.72,35.03,2-3
13:43:15,0.979669,99.72,35.03,2-3
13:43:16,0.98351,99.2,35.05,2-3
13:43:16,0.9950319999999999,99.2,35.05,2-3
13:43:16,1.021915,99.2,35.05,2-3
13:43:16,1.051359,99.2,35.05,2-3
13:43:17,1.080803,98.7,35.05,2-3
13:43:17,1.100006,98.7,35.05,2-3
13:43:17,1.1204889999999998,98.7,35.05,2-3
13:43:17,1.135851,98.7,35.05,2-3
13:43:18,1.143532,98.2,35.03,2-3
13:43:18,1.1448120000000002,98.2,35.03,2-3
13:43:18,1.138411,98.2,35.03,2-3
13:43:18,1.1281700000000001,98.2,35.03,2-3
13:43:19,1.119208,97.67,35.0,2-3
13:43:19,1.112808,97.67,35.0,2-3
13:43:19,1.105127,97.67,35.0,2-3
13:43:19,1.100006,97.67,35.0,2-3
13:43:20,1.094885,97.15,35.03,2-3
13:43:20,1.093605,97.15,35.03,2-3
13:43:20,1.087204,97.15,35.03,2-3
13:43:20,1.082083,97.15,35.03,2-3
13:43:21,1.080803,96.67,35.03,2-3
13:43:21,1.076963,96.67,35.03,2-3
13:43:21,1.074402,96.67,35.03,2-3
13:43:21,1.070562,96.67,35.03,2-3
13:43:22,1.069282,96.13,35.03,2-3
13:43:22,1.062881,96.13,35.03,2-3
13:43:22,1.062881,96.13,35.03,2-3
13:43:22,1.0603200000000002,96.13,35.03,2-3
13:43:23,1.05776,95.58,35.05,2-3
13:43:23,1.05776,95.58,35.05,2-3
13:43:23,1.0552,95.58,35.05,2-3
13:43:23,1.0526389999999999,95.58,35.05,2-3
13:43:24,1.051359,95.02,35.05,2-3
13:43:24,1.050079,95.02,35.05,2-3
13:43:24,1.047519,95.02,35.05,2-3
13:43:24,1.042398,95.02,35.05,2-3
13:43:25,1.038557,94.48,35.0,2-3
13:43:25,1.037277,94.48,35.0,2-3
13:43:25,1.038557,94.48,35.0,2-3
13:43:25,1.032157,94.48,35.0,2-3
13:43:26,1.0308760000000001,93.93,35.05,2-3
13:43:26,1.028316,93.93,35.05,2-3
13:43:26,1.024476,93.93,35.05,2-3
13:43:26,1.024476,93.93,35.05,2-3
13:43:27,1.024476,93.38,35.03,2-3
13:43:27,1.021915,93.38,35.03,2-3
13:43:27,1.021915,93.38,35.03,2-3
13:43:27,1.021915,93.38,35.03,2-3
13:43:28,1.018075,93.03,35.03,2-3
13:43:28,1.018075,93.03,35.03,2-3
13:43:28,1.016794,93.03,35.03,2-3
13:43:28,1.015514,93.03,35.03,2-3
13:43:29,1.014234,92.65,35.03,2-3
13:43:29,1.0129540000000001,92.65,35.03,2-3
13:43:29,1.0129540000000001,92.65,35.03,2-3
13:43:29,1.011674,92.65,35.03,2-3
13:43:30,1.006553,92.23,35.03,2-3
13:43:30,1.0052729999999999,92.23,35.03,2-3
13:43:30,1.0039930000000001,92.23,35.03,2-3
13:43:30,1.0052729999999999,92.23,35.03,2-3
13:43:31,1.002713,91.75,35.03,2-3
13:43:31,1.0014319999999999,91.75,35.03,2-3
13:43:31,1.0001520000000002,91.75,35.03,2-3
13:43:31,1.0001520000000002,91.75,35.03,2-3
13:43:32,1.0001520000000002,91.97,35.03,2-3
13:43:32,0.998872,91.97,35.03,2-3
13:43:32,0.998872,91.97,35.03,2-3
13:43:32,0.997592,91.97,35.03,2-3
13:43:33,0.9963120000000001,92.17,35.03,2-3
13:43:33,0.9963120000000001,92.17,35.03,2-3
13:43:33,0.9963120000000001,92.17,35.03,2-3
13:43:33,0.993751,92.17,35.03,2-3
13:43:34,0.993751,92.67,35.03,2-3
13:43:34,0.9911909999999999,92.67,35.03,2-3
13:43:34,0.9911909999999999,92.67,35.03,2-3
13:43:34,0.9911909999999999,92.67,35.03,2-3
13:43:35,0.9886309999999999,93.12,35.03,2-3
13:43:35,0.9899110000000001,93.12,35.03,2-3
13:43:35,0.9886309999999999,93.12,35.03,2-3
13:43:35,0.98735,93.12,35.03,2-3
13:43:36,0.9847899999999999,93.53,35.03,2-3
13:43:36,0.9886309999999999,93.53,35.03,2-3
13:43:36,0.9847899999999999,93.53,35.03,2-3
13:43:36,0.9860700000000001,93.53,35.03,2-3
13:43:37,0.9860700000000001,93.93,35.0,2-3
13:43:37,0.98351,93.93,35.0,2-3
13:43:37,0.979669,93.93,35.0,2-3
13:43:37,0.98095,93.93,35.0,2-3
13:43:38,0.98095,94.33,35.03,2-3
13:43:38,0.977109,94.33,35.03,2-3
13:43:38,0.977109,94.33,35.03,2-3
13:43:38,0.974549,94.33,35.03,2-3
13:43:39,0.974549,94.8,35.03,2-3
13:43:39,0.977109,94.8,35.03,2-3
13:43:39,0.977109,94.8,35.03,2-3
13:43:39,0.978389,94.8,35.03,2-3
13:43:40,0.977109,95.0,35.03,2-3
13:43:40,0.9758290000000001,95.0,35.03,2-3
13:43:40,0.977109,95.0,35.03,2-3
13:43:40,0.978389,95.0,35.03,2-3
13:43:41,0.978389,95.17,35.0,2-3
13:43:41,0.98351,95.17,35.0,2-3
13:43:41,0.9860700000000001,95.17,35.0,2-3
13:43:41,0.9860700000000001,95.17,35.0,2-3
13:43:42,0.9860700000000001,95.33,35.03,2-3
13:43:42,0.9899110000000001,95.33,35.03,2-3
13:43:42,0.9886309999999999,95.33,35.03,2-3
13:43:42,0.9924709999999999,95.33,35.03,2-3
13:43:43,0.9924709999999999,95.48,35.03,2-3
13:43:43,0.993751,95.48,35.03,2-3
13:43:43,0.993751,95.48,35.03,2-3
13:43:43,0.993751,95.48,35.03,2-3
13:43:44,0.9911909999999999,95.6,35.0,2-3
13:43:44,0.9911909999999999,95.6,35.0,2-3
13:43:44,0.9924709999999999,95.6,35.0,2-3
13:43:44,0.9924709999999999,95.6,35.0,2-3
13:43:45,0.993751,95.72,35.03,2-3
13:43:45,0.9911909999999999,95.72,35.03,2-3
13:43:45,0.993751,95.72,35.03,2-3
13:43:45,0.9924709999999999,95.72,35.03,2-3
13:43:46,0.993751,95.83,35.03,2-3
13:43:46,0.9950319999999999,95.83,35.03,2-3
13:43:46,0.9950319999999999,95.83,35.03,2-3
13:43:46,0.9950319999999999,95.83,35.03,2-3
13:43:47,0.9924709999999999,95.92,35.03,2-3
13:43:47,0.9950319999999999,95.92,35.03,2-3
13:43:47,0.9924709999999999,95.92,35.03,2-3
13:43:47,0.9911909999999999,95.92,35.03,2-3
13:43:48,0.9924709999999999,96.02,35.05,2-3
13:43:48,0.9911909999999999,96.02,35.05,2-3
13:43:48,0.9899110000000001,96.02,35.05,2-3
13:43:48,0.9899110000000001,96.02,35.05,2-3
13:43:49,0.993751,96.12,35.0,2-3
13:43:49,0.993751,96.12,35.0,2-3
13:43:49,0.9899110000000001,96.12,35.0,2-3
13:43:49,0.98735,96.12,35.0,2-3
13:43:50,0.9899110000000001,96.2,35.05,2-3
13:43:50,0.98735,96.2,35.05,2-3
13:43:50,0.9860700000000001,96.2,35.05,2-3
13:43:50,0.9886309999999999,96.2,35.05,2-3
13:43:51,0.9860700000000001,96.25,35.03,2-3
13:43:51,0.9847899999999999,96.25,35.03,2-3
13:43:51,0.98351,96.25,35.03,2-3
13:43:51,0.9822299999999999,96.25,35.03,2-3
13:43:52,0.98095,96.28,35.05,2-3
13:43:52,0.98095,96.28,35.05,2-3
13:43:52,0.9822299999999999,96.28,35.05,2-3
13:43:52,0.98351,96.28,35.05,2-3
13:43:53,0.979669,96.28,35.03,2-3
13:43:53,0.98095,96.28,35.03,2-3
13:43:53,0.979669,96.28,35.03,2-3
13:43:53,0.978389,96.28,35.03,2-3
13:43:54,0.978389,96.27,35.05,2-3
13:43:54,0.977109,96.27,35.05,2-3
13:43:54,0.977109,96.27,35.05,2-3
13:43:54,0.974549,96.27,35.05,2-3
13:43:55,0.9758290000000001,96.23,35.05,2-3
13:43:55,0.974549,96.23,35.05,2-3
13:43:55,0.9758290000000001,96.23,35.05,2-3
13:43:55,0.973269,96.23,35.05,2-3
13:43:56,0.973269,96.2,35.03,2-3
13:43:56,0.971988,96.2,35.03,2-3
13:43:56,0.970708,96.2,35.03,2-3
13:43:56,0.964307,96.2,35.03,2-3
13:43:57,0.9630270000000001,96.17,35.05,2-3
13:43:57,0.9668680000000001,96.17,35.05,2-3
13:43:57,0.973269,96.17,35.05,2-3
13:43:57,0.974549,96.17,35.05,2-3
13:43:58,0.977109,96.13,35.05,2-3
13:43:58,0.9758290000000001,96.13,35.05,2-3
13:43:58,0.973269,96.13,35.05,2-3
13:43:58,0.9758290000000001,96.13,35.05,2-3
13:43:59,0.973269,96.1,35.05,2-3
13:43:59,0.971988,96.1,35.05,2-3
13:43:59,0.973269,96.1,35.05,2-3
13:43:59,0.9758290000000001,96.1,35.05,2-3
13:44:00,0.977109,96.07,35.05,2-3
13:44:00,0.98351,96.07,35.05,2-3
13:44:00,0.98735,96.07,35.05,2-3
13:44:00,0.9911909999999999,96.07,35.05,2-3
13:44:01,0.9950319999999999,96.03,35.03,2-3
13:44:01,0.9963120000000001,96.03,35.03,2-3
13:44:01,0.9911909999999999,96.03,35.03,2-3
13:44:01,0.9886309999999999,96.03,35.03,2-3
13:44:02,0.9886309999999999,96.0,35.05,2-3
13:44:02,0.9860700000000001,96.0,35.05,2-3
13:44:02,0.98095,96.0,35.05,2-3
13:44:02,0.9822299999999999,96.0,35.05,2-3
13:44:03,0.98095,95.97,35.03,2-3
13:44:03,0.978389,95.97,35.03,2-3
13:44:03,0.973269,95.97,35.03,2-3
13:44:03,0.973269,95.97,35.03,2-3
13:44:04,0.971988,95.95,35.05,2-3
13:44:04,0.9694280000000001,95.95,35.05,2-3
13:44:04,0.964307,95.95,35.05,2-3
13:44:04,0.964307,95.95,35.05,2-3
13:44:05,0.964307,95.97,35.03,2-3
13:44:05,0.9630270000000001,95.97,35.03,2-3
13:44:05,0.964307,95.97,35.03,2-3
13:44:05,0.9617469999999999,95.97,35.03,2-3
13:44:06,0.960467,96.0,35.03,2-3
13:44:06,0.9591870000000001,96.0,35.03,2-3
13:44:06,0.9591870000000001,96.0,35.03,2-3
13:44:06,0.9579059999999999,96.0,35.03,2-3
13:44:07,0.9553459999999999,96.07,35.03,2-3
13:44:07,0.956626,96.07,35.03,2-3
13:44:07,0.952786,96.07,35.03,2-3
13:44:07,0.950225,96.07,35.03,2-3
13:44:08,0.948945,96.15,35.03,2-3
13:44:08,0.951506,96.15,35.03,2-3
13:44:08,0.947665,96.15,35.03,2-3
13:44:08,0.948945,96.15,35.03,2-3
13:44:09,0.945105,96.25,35.03,2-3
13:44:09,0.948945,96.25,35.03,2-3
13:44:09,0.945105,96.25,35.03,2-3
13:44:09,0.948945,96.25,35.03,2-3
13:44:10,0.946385,96.35,35.03,2-3
13:44:10,0.943825,96.35,35.03,2-3
13:44:10,0.943825,96.35,35.03,2-3
13:44:10,0.942544,96.35,35.03,2-3
13:44:11,0.939984,96.45,35.03,2-3
13:44:11,0.942544,96.45,35.03,2-3
13:44:11,0.942544,96.45,35.03,2-3
13:44:11,0.943825,96.45,35.03,2-3
13:44:12,0.943825,96.55,35.03,2-3
13:44:12,0.947665,96.55,35.03,2-3
13:44:12,0.946385,96.55,35.03,2-3
13:44:12,0.946385,96.55,35.03,2-3
13:44:13,0.947665,96.63,35.03,2-3
13:44:13,0.942544,96.63,35.03,2-3
13:44:13,0.942544,96.63,35.03,2-3
13:44:13,0.9387040000000001,96.63,35.03,2-3
13:44:14,0.939984,96.72,35.03,2-3
13:44:14,0.9374239999999999,96.72,35.03,2-3
13:44:14,0.9348629999999999,96.72,35.03,2-3
13:44:14,0.9323030000000001,96.72,35.03,2-3
13:44:15,0.9335829999999999,96.78,35.0,2-3
13:44:15,0.9310229999999999,96.78,35.0,2-3
13:44:15,0.9323030000000001,96.78,35.0,2-3
13:44:15,0.9335829999999999,96.78,35.0,2-3
13:44:16,0.929743,96.85,35.03,2-3
13:44:16,0.9348629999999999,96.85,35.03,2-3
13:44:16,0.9310229999999999,96.85,35.03,2-3
13:44:16,0.927182,96.85,35.03,2-3
13:44:17,0.927182,96.9,35.07,2-3
13:44:17,0.925902,96.9,35.07,2-3
13:44:17,0.9246219999999999,96.9,35.07,2-3
13:44:17,0.920781,96.9,35.07,2-3
13:44:18,0.919501,96.93,35.03,2-3
13:44:18,0.922062,96.93,35.03,2-3
13:44:18,0.923342,96.93,35.03,2-3
13:44:18,0.919501,96.93,35.03,2-3
13:44:19,0.919501,96.97,35.03,2-3
13:44:19,0.920781,96.97,35.03,2-3
13:44:19,0.918221,96.97,35.03,2-3
13:44:19,0.918221,96.97,35.03,2-3
13:44:20,0.9156610000000001,97.0,35.03,2-3
13:44:20,0.91438,97.0,35.03,2-3
13:44:20,0.9118200000000001,97.0,35.03,2-3
13:44:20,0.9131,97.0,35.03,2-3
13:44:21,0.9156610000000001,97.03,35.05,2-3
13:44:21,0.91438,97.03,35.05,2-3
13:44:21,0.9118200000000001,97.03,35.05,2-3
13:44:21,0.9092600000000001,97.03,35.05,2-3
13:44:22,0.9092600000000001,97.07,35.05,2-3
13:44:22,0.9079799999999999,97.07,35.05,2-3
13:44:22,0.906699,97.07,35.05,2-3
13:44:22,0.9041389999999999,97.07,35.05,2-3
13:44:23,0.9054190000000001,97.1,35.03,2-3
13:44:23,0.9054190000000001,97.1,35.03,2-3
13:44:23,0.9054190000000001,97.1,35.03,2-3
13:44:23,0.9041389999999999,97.1,35.03,2-3
13:44:24,0.9054190000000001,97.15,35.05,2-3
13:44:24,0.9041389999999999,97.15,35.05,2-3
13:44:24,0.9041389999999999,97.15,35.05,2-3
13:44:24,0.902859,97.15,35.05,2-3
13:44:25,0.902859,97.18,35.03,2-3
13:44:25,0.9015790000000001,97.18,35.03,2-3
13:44:25,0.8977379999999999,97.18,35.03,2-3
13:44:25,0.8977379999999999,97.18,35.03,2-3
13:44:26,0.8977379999999999,97.22,35.03,2-3
13:44:26,0.895178,97.22,35.03,2-3
13:44:26,0.895178,97.22,35.03,2-3
13:44:26,0.896458,97.22,35.03,2-3
13:44:27,0.896458,97.23,35.03,2-3
13:44:27,0.893898,97.23,35.03,2-3
13:44:27,0.892618,97.23,35.03,2-3
13:44:27,0.892618,97.23,35.03,2-3
13:44:28,0.892618,97.23,35.03,2-3
13:44:28,0.891337,97.23,35.03,2-3
13:44:28,0.891337,97.23,35.03,2-3
13:44:28,0.888777,97.23,35.03,2-3
13:44:29,0.890057,97.3,35.05,2-3
13:44:29,0.887497,97.3,35.05,2-3
13:44:29,0.887497,97.3,35.05,2-3
13:44:29,0.888777,97.3,35.05,2-3
13:44:30,0.886217,97.37,35.03,2-3
13:44:30,0.887497,97.37,35.03,2-3
13:44:30,0.8849370000000001,97.37,35.03,2-3
13:44:30,0.883656,97.37,35.03,2-3
13:44:31,0.883656,97.43,35.03,2-3
13:44:31,0.883656,97.43,35.03,2-3
13:44:31,0.882376,97.43,35.03,2-3
13:44:31,0.8810959999999999,97.43,35.03,2-3
13:44:32,0.8810959999999999,97.48,35.03,2-3
13:44:32,0.8810959999999999,97.48,35.03,2-3
13:44:32,0.882376,97.48,35.03,2-3
13:44:32,0.8810959999999999,97.48,35.03,2-3
13:44:33,0.8798159999999999,97.53,35.05,2-3
13:44:33,0.8785360000000001,97.53,35.05,2-3
13:44:33,0.8785360000000001,97.53,35.05,2-3
13:44:33,0.875975,97.53,35.05,2-3
13:44:34,0.8772549999999999,97.57,35.05,2-3
13:44:34,0.875975,97.57,35.05,2-3
13:44:34,0.875975,97.57,35.05,2-3
13:44:34,0.8734149999999999,97.57,35.05,2-3
13:44:35,0.872135,97.58,35.03,2-3
13:44:35,0.869574,97.58,35.03,2-3
13:44:35,0.8708549999999999,97.58,35.03,2-3
13:44:35,0.872135,97.58,35.03,2-3
13:44:36,0.872135,97.58,35.05,2-3
13:44:36,0.867014,97.58,35.05,2-3
13:44:36,0.865734,97.58,35.05,2-3
13:44:36,0.865734,97.58,35.05,2-3
13:44:37,0.865734,97.58,35.03,2-3
13:44:37,0.8644540000000001,97.58,35.03,2-3
13:44:37,0.863174,97.58,35.03,2-3
13:44:37,0.863174,97.58,35.03,2-3
13:44:38,0.863174,97.58,35.05,2-3
13:44:38,0.863174,97.58,35.05,2-3
13:44:38,0.861893,97.58,35.05,2-3
13:44:38,0.861893,97.58,35.05,2-3
13:44:39,0.859333,97.6,35.05,2-3
13:44:39,0.856773,97.6,35.05,2-3
13:44:39,0.855492,97.6,35.05,2-3
13:44:39,0.856773,97.6,35.05,2-3
13:44:40,0.8542120000000001,97.63,35.03,2-3
13:44:40,0.852932,97.63,35.03,2-3
13:44:40,0.8503719999999999,97.63,35.03,2-3
13:44:40,0.849092,97.63,35.03,2-3
13:44:41,0.849092,97.65,35.05,2-3
13:44:41,0.849092,97.65,35.05,2-3
13:44:41,0.849092,97.65,35.05,2-3
13:44:41,0.8478110000000001,97.65,35.05,2-3
13:44:42,0.8465309999999999,97.67,35.05,2-3
13:44:42,0.845251,97.67,35.05,2-3
13:44:42,0.845251,97.67,35.05,2-3
13:44:42,0.842691,97.67,35.05,2-3
13:44:43,0.8439709999999999,97.67,35.05,2-3
13:44:43,0.83885,97.67,35.05,2-3
13:44:43,0.83885,97.67,35.05,2-3
13:44:43,0.83885,97.67,35.05,2-3
13:44:44,0.83629,97.67,35.05,2-3
13:44:44,0.83629,97.67,35.05,2-3
13:44:44,0.83501,97.67,35.05,2-3
13:44:44,0.83373,97.67,35.05,2-3
13:44:45,0.83373,97.67,35.05,2-3
13:44:45,0.83501,97.67,35.05,2-3
13:44:45,0.83373,97.67,35.05,2-3
13:44:45,0.832449,97.67,35.05,2-3
13:44:46,0.831169,97.65,35.05,2-3
13:44:46,0.831169,97.65,35.05,2-3
13:44:46,0.828609,97.65,35.05,2-3
13:44:46,0.831169,97.65,35.05,2-3
13:44:47,0.8273290000000001,97.63,35.03,2-3
13:44:47,0.8247680000000001,97.63,35.03,2-3
13:44:47,0.8209280000000001,97.63,35.03,2-3
13:44:47,0.8196479999999999,97.63,35.03,2-3
13:44:48,0.8209280000000001,97.6,35.03,2-3
13:44:48,0.818367,97.6,35.03,2-3
13:44:48,0.818367,97.6,35.03,2-3
13:44:48,0.818367,97.6,35.03,2-3
13:44:49,0.817087,97.57,35.05,2-3
13:44:49,0.818367,97.57,35.05,2-3
13:44:49,0.818367,97.57,35.05,2-3
13:44:49,0.817087,97.57,35.05,2-3
13:44:50,0.817087,97.53,35.03,2-3
13:44:50,0.813247,97.53,35.03,2-3
13:44:50,0.813247,97.53,35.03,2-3
13:44:50,0.811967,97.53,35.03,2-3
13:44:51,0.811967,97.52,35.05,2-3
13:44:51,0.810686,97.52,35.05,2-3
13:44:51,0.8094060000000001,97.52,35.05,2-3
13:44:51,0.808126,97.52,35.05,2-3
13:44:52,0.806846,97.5,35.05,2-3
13:44:52,0.805566,97.5,35.05,2-3
13:44:52,0.805566,97.5,35.05,2-3
13:44:52,0.805566,97.5,35.05,2-3
13:44:53,0.804285,97.48,35.05,2-3
13:44:53,0.804285,97.48,35.05,2-3
13:44:53,0.799165,97.48,35.05,2-3
13:44:53,0.801725,97.48,35.05,2-3
13:44:54,0.799165,97.47,35.05,2-3
13:44:54,0.799165,97.47,35.05,2-3
13:44:54,0.800445,97.47,35.05,2-3
13:44:54,0.799165,97.47,35.05,2-3
13:44:55,0.7978850000000001,97.45,35.05,2-3
13:44:55,0.795324,97.45,35.05,2-3
13:44:55,0.795324,97.45,35.05,2-3
13:44:55,0.794044,97.45,35.05,2-3
13:44:56,0.794044,97.42,35.05,2-3
13:44:56,0.795324,97.42,35.05,2-3
13:44:56,0.795324,97.42,35.05,2-3
13:44:56,0.792764,97.42,35.05,2-3
13:44:57,0.790204,97.38,35.03,2-3
13:44:57,0.791484,97.38,35.03,2-3
13:44:57,0.7889229999999999,97.38,35.03,2-3
13:44:57,0.7889229999999999,97.38,35.03,2-3
13:44:58,0.786363,97.3,35.05,2-3
13:44:58,0.7889229999999999,97.3,35.05,2-3
13:44:58,0.7889229999999999,97.3,35.05,2-3
13:44:58,0.785083,97.3,35.05,2-3
13:44:59,0.785083,97.25,35.05,2-3
13:44:59,0.785083,97.25,35.05,2-3
13:44:59,0.781242,97.25,35.05,2-3
13:44:59,0.782522,97.25,35.05,2-3
13:45:00,0.781242,97.22,35.03,2-3
13:45:00,0.782522,97.22,35.03,2-3
13:45:00,0.783803,97.22,35.03,2-3
13:45:00,0.781242,97.22,35.03,2-3
13:45:01,0.782522,97.18,35.03,2-3
13:45:01,0.779962,97.18,35.03,2-3
13:45:01,0.778682,97.18,35.03,2-3
13:45:01,0.777402,97.18,35.03,2-3
13:45:02,0.777402,97.15,35.05,2-3
13:45:02,0.777402,97.15,35.05,2-3
13:45:02,0.778682,97.15,35.05,2-3
13:45:02,0.777402,97.15,35.05,2-3
13:45:03,0.774841,97.13,35.05,2-3
13:45:03,0.777402,97.13,35.05,2-3
13:45:03,0.774841,97.13,35.05,2-3
13:45:03,0.772281,97.13,35.05,2-3
13:45:04,0.772281,97.13,35.07,2-3
13:45:04,0.7735609999999999,97.13,35.07,2-3
13:45:04,0.772281,97.13,35.07,2-3
13:45:04,0.772281,97.13,35.07,2-3
13:45:05,0.769721,97.12,35.05,2-3
13:45:05,0.774841,97.12,35.05,2-3
13:45:05,0.769721,97.12,35.05,2-3
13:45:05,0.7735609999999999,97.12,35.05,2-3
13:45:06,0.768441,97.1,35.05,2-3
13:45:06,0.772281,97.1,35.05,2-3
13:45:06,0.768441,97.1,35.05,2-3
13:45:06,0.771001,97.1,35.05,2-3
13:45:07,0.7671600000000001,97.07,35.05,2-3
13:45:07,0.7671600000000001,97.07,35.05,2-3
13:45:07,0.76588,97.07,35.05,2-3
13:45:07,0.7646,97.07,35.05,2-3
13:45:08,0.76332,97.02,35.05,2-3
13:45:08,0.7620399999999999,97.02,35.05,2-3
13:45:08,0.76332,97.02,35.05,2-3
13:45:08,0.76588,97.02,35.05,2-3
13:45:09,0.7620399999999999,96.97,35.05,2-3
13:45:09,0.7620399999999999,96.97,35.05,2-3
13:45:09,0.759479,96.97,35.05,2-3
13:45:09,0.759479,96.97,35.05,2-3
13:45:10,0.756919,96.93,35.07,2-3
13:45:10,0.7620399999999999,96.93,35.07,2-3
13:45:10,0.759479,96.93,35.07,2-3
13:45:10,0.758199,96.93,35.07,2-3
13:45:11,0.756919,96.88,35.05,2-3
13:45:11,0.753078,96.88,35.05,2-3
13:45:11,0.754359,96.88,35.05,2-3
13:45:11,0.751798,96.88,35.05,2-3
13:45:12,0.751798,96.82,35.05,2-3
13:45:12,0.753078,96.82,35.05,2-3
13:45:12,0.753078,96.82,35.05,2-3
13:45:12,0.750518,96.82,35.05,2-3
13:45:13,0.750518,96.77,35.05,2-3
13:45:13,0.751798,96.77,35.05,2-3
13:45:13,0.750518,96.77,35.05,2-3
13:45:13,0.749238,96.77,35.05,2-3
13:45:14,0.747958,96.7,35.07,2-3
13:45:14,0.749238,96.7,35.07,2-3
13:45:14,0.746678,96.7,35.07,2-3
13:45:14,0.744117,96.7,35.07,2-3
13:45:15,0.745397,96.63,35.05,2-3
13:45:15,0.742837,96.63,35.05,2-3
13:45:15,0.744117,96.63,35.05,2-3
13:45:15,0.744117,96.63,35.05,2-3
13:45:16,0.7402770000000001,96.57,35.05,2-3
13:45:16,0.7402770000000001,96.57,35.05,2-3
13:45:16,0.744117,96.57,35.05,2-3
13:45:16,0.742837,96.57,35.05,2-3
13:45:17,0.741557,96.52,35.07,2-3
13:45:17,0.741557,96.52,35.07,2-3
13:45:17,0.7402770000000001,96.52,35.07,2-3
13:45:17,0.737716,96.52,35.07,2-3
13:45:18,0.738997,96.5,35.07,2-3
13:45:18,0.737716,96.5,35.07,2-3
13:45:18,0.735156,96.5,35.07,2-3
13:45:18,0.737716,96.5,35.07,2-3
13:45:19,0.737716,96.48,35.07,2-3
13:45:19,0.736436,96.48,35.07,2-3
13:45:19,0.733876,96.48,35.07,2-3
13:45:19,0.733876,96.48,35.07,2-3
13:45:20,0.733876,96.45,35.07,2-3
13:45:20,0.735156,96.45,35.07,2-3
13:45:20,0.733876,96.45,35.07,2-3
13:45:20,0.735156,96.45,35.07,2-3
13:45:21,0.7313149999999999,96.42,35.05,2-3
13:45:21,0.7313149999999999,96.42,35.05,2-3
13:45:21,0.7313149999999999,96.42,35.05,2-3
13:45:21,0.7313149999999999,96.42,35.05,2-3
13:45:22,0.7313149999999999,96.38,35.07,2-3
13:45:22,0.730035,96.38,35.07,2-3
13:45:22,0.728755,96.38,35.07,2-3
13:45:22,0.726195,96.38,35.07,2-3
13:45:23,0.724915,96.33,35.07,2-3
13:45:23,0.723634,96.33,35.07,2-3
13:45:23,0.724915,96.33,35.07,2-3
13:45:23,0.723634,96.33,35.07,2-3
13:45:24,0.724915,96.25,35.05,2-3
13:45:24,0.727475,96.25,35.05,2-3
13:45:24,0.724915,96.25,35.05,2-3
13:45:24,0.724915,96.25,35.05,2-3
13:45:25,0.722354,96.15,35.07,2-3
13:45:25,0.722354,96.15,35.07,2-3
13:45:25,0.721074,96.15,35.07,2-3
13:45:25,0.7197939999999999,96.15,35.07,2-3
13:45:26,0.7197939999999999,96.07,35.07,2-3
13:45:26,0.7197939999999999,96.07,35.07,2-3
13:45:26,0.715953,96.07,35.07,2-3
13:45:26,0.713393,96.07,35.07,2-3
13:45:27,0.713393,96.0,35.07,2-3
13:45:27,0.714673,96.0,35.07,2-3
13:45:27,0.714673,96.0,35.07,2-3
13:45:27,0.712113,96.0,35.07,2-3
13:45:28,0.714673,95.97,35.07,2-3
13:45:28,0.710833,95.97,35.07,2-3
13:45:28,0.710833,95.97,35.07,2-3
13:45:28,0.709553,95.97,35.07,2-3
13:45:29,0.709553,95.88,35.09,2-3
13:45:29,0.708272,95.88,35.09,2-3
13:45:29,0.706992,95.88,35.09,2-3
13:45:29,0.709553,95.88,35.09,2-3
13:45:30,0.706992,95.8,35.09,2-3
13:45:30,0.704432,95.8,35.09,2-3
13:45:30,0.705712,95.8,35.09,2-3
13:45:30,0.704432,95.8,35.09,2-3
13:45:31,0.703152,95.73,35.07,2-3
13:45:31,0.704432,95.73,35.07,2-3
13:45:31,0.701872,95.73,35.07,2-3
13:45:31,0.703152,95.73,35.07,2-3
13:45:32,0.701872,95.67,35.07,2-3
13:45:32,0.705712,95.67,35.07,2-3
13:45:32,0.706992,95.67,35.07,2-3
13:45:32,0.700591,95.67,35.07,2-3
13:45:33,0.700591,95.6,35.07,2-3
13:45:33,0.700591,95.6,35.07,2-3
13:45:33,0.703152,95.6,35.07,2-3
13:45:33,0.6980310000000001,95.6,35.07,2-3
13:45:34,0.700591,95.53,35.05,2-3
13:45:34,0.696751,95.53,35.05,2-3
13:45:34,0.696751,95.53,35.05,2-3
13:45:34,0.696751,95.53,35.05,2-3
13:45:35,0.696751,95.47,35.07,2-3
13:45:35,0.6980310000000001,95.47,35.07,2-3
13:45:35,0.696751,95.47,35.07,2-3
13:45:35,0.695471,95.47,35.07,2-3
13:45:36,0.696751,95.42,35.07,2-3
13:45:36,0.696751,95.42,35.07,2-3
13:45:36,0.69419,95.42,35.07,2-3
13:45:36,0.69291,95.42,35.07,2-3
13:45:37,0.69419,95.37,35.07,2-3
13:45:37,0.695471,95.37,35.07,2-3
13:45:37,0.69291,95.37,35.07,2-3
13:45:37,0.69035,95.37,35.07,2-3
13:45:38,0.683949,95.33,35.09,2-3
13:45:38,0.683949,95.33,35.09,2-3
13:45:38,0.681389,95.33,35.09,2-3
13:45:38,0.683949,95.33,35.09,2-3
13:45:39,0.681389,95.27,35.07,2-3
13:45:39,0.681389,95.27,35.07,2-3
13:45:39,0.682669,95.27,35.07,2-3
13:45:39,0.682669,95.27,35.07,2-3
13:45:40,0.681389,95.18,35.07,2-3
13:45:40,0.678828,95.18,35.07,2-3
13:45:40,0.681389,95.18,35.07,2-3
13:45:40,0.681389,95.18,35.07,2-3
13:45:41,0.676268,95.12,35.07,2-3
13:45:41,0.676268,95.12,35.07,2-3
13:45:41,0.678828,95.12,35.07,2-3
13:45:41,0.676268,95.12,35.07,2-3
13:45:42,0.673708,95.03,35.07,2-3
13:45:42,0.678828,95.03,35.07,2-3
13:45:42,0.676268,95.03,35.07,2-3
13:45:42,0.6775479999999999,95.03,35.07,2-3
13:45:43,0.676268,94.95,35.09,2-3
13:45:43,0.6775479999999999,94.95,35.09,2-3
13:45:43,0.676268,94.95,35.09,2-3
13:45:43,0.674988,94.95,35.09,2-3
13:45:44,0.6775479999999999,94.87,35.09,2-3
13:45:44,0.676268,94.87,35.09,2-3
13:45:44,0.676268,94.87,35.09,2-3
13:45:44,0.674988,94.87,35.09,2-3
13:45:45,0.673708,94.77,35.09,2-3
13:45:45,0.673708,94.77,35.09,2-3
13:45:45,0.673708,94.77,35.09,2-3
13:45:45,0.672427,94.77,35.09,2-3
13:45:46,0.673708,94.67,35.07,2-3
13:45:46,0.676268,94.67,35.07,2-3
13:45:46,0.674988,94.67,35.07,2-3
13:45:46,0.674988,94.67,35.07,2-3
13:45:47,0.672427,94.58,35.09,2-3
13:45:47,0.673708,94.58,35.09,2-3
13:45:47,0.673708,94.58,35.09,2-3
13:45:47,0.672427,94.58,35.09,2-3
13:45:48,0.672427,94.53,35.09,2-3
13:45:48,0.671147,94.53,35.09,2-3
13:45:48,0.671147,94.53,35.09,2-3
13:45:48,0.669867,94.53,35.09,2-3
13:45:49,0.667307,94.5,35.09,2-3
13:45:49,0.669867,94.5,35.09,2-3
13:45:49,0.668587,94.5,35.09,2-3
13:45:49,0.668587,94.5,35.09,2-3
13:45:50,0.668587,94.48,35.05,2-3
13:45:50,0.667307,94.48,35.05,2-3
13:45:50,0.667307,94.48,35.05,2-3
13:45:50,0.667307,94.48,35.05,2-3
13:45:51,0.6647460000000001,94.53,35.09,2-3
13:45:51,0.6647460000000001,94.53,35.09,2-3
13:45:51,0.6647460000000001,94.53,35.09,2-3
13:45:51,0.663466,94.53,35.09,2-3
13:45:52,0.6621859999999999,94.58,35.09,2-3
13:45:52,0.660906,94.58,35.09,2-3
13:45:52,0.6647460000000001,94.58,35.09,2-3
13:45:52,0.6621859999999999,94.58,35.09,2-3
13:45:53,0.663466,94.63,35.07,2-3
13:45:53,0.6621859999999999,94.63,35.07,2-3
13:45:53,0.660906,94.63,35.07,2-3
13:45:53,0.663466,94.63,35.07,2-3
13:45:54,0.659626,94.7,35.07,2-3
13:45:54,0.6621859999999999,94.7,35.07,2-3
13:45:54,0.660906,94.7,35.07,2-3
13:45:54,0.660906,94.7,35.07,2-3
13:45:55,0.657065,94.77,35.07,2-3
13:45:55,0.659626,94.77,35.07,2-3
13:45:55,0.657065,94.77,35.07,2-3
13:45:55,0.6557850000000001,94.77,35.07,2-3
13:45:56,0.657065,94.78,35.07,2-3
13:45:56,0.654505,94.78,35.07,2-3
13:45:56,0.654505,94.78,35.07,2-3
13:45:56,0.657065,94.78,35.07,2-3
13:45:57,0.657065,94.73,35.09,2-3
13:45:57,0.657065,94.73,35.09,2-3
13:45:57,0.657065,94.73,35.09,2-3
13:45:57,0.657065,94.73,35.09,2-3
13:45:58,0.659626,94.72,35.07,2-3
13:45:58,0.658346,94.72,35.07,2-3
13:45:58,0.657065,94.72,35.07,2-3
13:45:58,0.6557850000000001,94.72,35.07,2-3
13:45:59,0.653225,94.68,35.07,2-3
13:45:59,0.654505,94.68,35.07,2-3
13:45:59,0.653225,94.68,35.07,2-3
13:45:59,0.6557850000000001,94.68,35.07,2-3
13:46:00,0.653225,94.63,35.07,2-3
13:46:00,0.6557850000000001,94.63,35.07,2-3
13:46:00,0.654505,94.63,35.07,2-3
13:46:00,0.657065,94.63,35.07,2-3
13:46:01,0.659626,94.57,35.11,2-3
13:46:01,0.657065,94.57,35.11,2-3
13:46:01,0.659626,94.57,35.11,2-3
13:46:01,0.660906,94.57,35.11,2-3
13:46:02,0.657065,94.48,35.09,2-3
13:46:02,0.659626,94.48,35.09,2-3
13:46:02,0.654505,94.48,35.09,2-3
13:46:02,0.6557850000000001,94.48,35.09,2-3
13:46:03,0.657065,94.4,35.05,2-3
13:46:03,0.658346,94.4,35.05,2-3
13:46:03,0.657065,94.4,35.05,2-3
13:46:03,0.658346,94.4,35.05,2-3
13:46:04,0.6557850000000001,94.32,35.09,2-3
13:46:04,0.654505,94.32,35.09,2-3
13:46:04,0.6557850000000001,94.32,35.09,2-3
13:46:04,0.654505,94.32,35.09,2-3
13:46:05,0.654505,94.25,35.09,2-3
13:46:05,0.654505,94.25,35.09,2-3
13:46:05,0.653225,94.25,35.09,2-3
13:46:05,0.654505,94.25,35.09,2-3
13:46:06,0.6506649999999999,94.18,35.07,2-3
13:46:06,0.653225,94.18,35.07,2-3
13:46:06,0.654505,94.18,35.07,2-3
13:46:06,0.653225,94.18,35.07,2-3
13:46:07,0.653225,94.13,35.07,2-3
13:46:07,0.6506649999999999,94.13,35.07,2-3
13:46:07,0.6506649999999999,94.13,35.07,2-3
13:46:07,0.6506649999999999,94.13,35.07,2-3
13:46:08,0.653225,94.07,35.09,2-3
13:46:08,0.653225,94.07,35.09,2-3
13:46:08,0.6506649999999999,94.07,35.09,2-3
13:46:08,0.649384,94.07,35.09,2-3
13:46:09,0.649384,93.98,35.11,2-3
13:46:09,0.648104,93.98,35.11,2-3
13:46:09,0.649384,93.98,35.11,2-3
13:46:09,0.649384,93.98,35.11,2-3
13:46:10,0.649384,93.83,35.09,2-3
13:46:10,0.649384,93.83,35.09,2-3
13:46:10,0.648104,93.83,35.09,2-3
13:46:10,0.645544,93.83,35.09,2-3
13:46:11,0.642983,93.72,35.09,2-3
13:46:11,0.646824,93.72,35.09,2-3
13:46:11,0.6442640000000001,93.72,35.09,2-3
13:46:11,0.640423,93.72,35.09,2-3
13:46:12,0.641703,93.58,35.11,2-3
13:46:12,0.641703,93.58,35.11,2-3
13:46:12,0.634022,93.58,35.11,2-3
13:46:12,0.637863,93.58,35.11,2-3
13:46:13,0.637863,93.45,35.07,2-3
13:46:13,0.639143,93.45,35.07,2-3
13:46:13,0.640423,93.45,35.07,2-3
13:46:13,0.637863,93.45,35.07,2-3
13:46:14,0.637863,93.32,35.11,2-3
13:46:14,0.637863,93.32,35.11,2-3
13:46:14,0.635302,93.32,35.11,2-3
13:46:14,0.632742,93.32,35.11,2-3
13:46:15,0.632742,93.2,35.09,2-3
13:46:15,0.634022,93.2,35.09,2-3
13:46:15,0.631462,93.2,35.09,2-3
13:46:15,0.635302,93.2,35.09,2-3
13:46:16,0.631462,93.08,35.07,2-3
13:46:16,0.634022,93.08,35.07,2-3
13:46:16,0.634022,93.08,35.07,2-3
13:46:16,0.632742,93.08,35.07,2-3
13:46:17,0.631462,92.98,35.09,2-3
13:46:17,0.631462,92.98,35.09,2-3
13:46:17,0.634022,92.98,35.09,2-3
13:46:17,0.631462,92.98,35.09,2-3
13:46:18,0.632742,92.85,35.07,2-3
13:46:18,0.631462,92.85,35.07,2-3
13:46:18,0.6289020000000001,92.85,35.07,2-3
13:46:18,0.622501,92.85,35.07,2-3
13:46:19,0.62122,92.73,35.07,2-3
13:46:19,0.625061,92.73,35.07,2-3
13:46:19,0.625061,92.73,35.07,2-3
13:46:19,0.61866,92.73,35.07,2-3
13:46:20,0.612259,92.63,35.09,2-3
13:46:20,0.61482,92.63,35.09,2-3
13:46:20,0.610979,92.63,35.09,2-3
13:46:20,0.612259,92.63,35.09,2-3
13:46:21,0.61738,92.53,35.07,2-3
13:46:21,0.622501,92.53,35.07,2-3
13:46:21,0.622501,92.53,35.07,2-3
13:46:21,0.6161,92.53,35.07,2-3
13:46:22,0.612259,92.43,35.07,2-3
13:46:22,0.61738,92.43,35.07,2-3
13:46:22,0.622501,92.43,35.07,2-3
13:46:22,0.6135390000000001,92.43,35.07,2-3
13:46:23,0.622501,92.35,35.07,2-3
13:46:23,0.612259,92.35,35.07,2-3
13:46:23,0.593057,92.35,35.07,2-3
13:46:23,0.605858,92.35,35.07,2-3
13:46:24,0.604578,92.28,35.07,2-3
13:46:24,0.576414,92.28,35.07,2-3
13:46:24,0.499604,92.28,35.07,2-3
13:46:24,0.580255,92.28,35.07,2-3
13:46:25,0.578975,92.28,35.07,2-3
13:46:25,0.582815,92.28,35.07,2-3
13:46:25,0.584095,92.28,35.07,2-3
13:46:25,0.581535,92.28,35.07,2-3
13:46:26,0.580255,92.32,35.07,2-3
13:46:26,0.577695,92.32,35.07,2-3
13:46:26,0.573854,92.32,35.07,2-3
13:46:26,0.571294,92.32,35.07,2-3
13:46:27,0.5661729999999999,92.35,35.07,2-3
13:46:27,0.570013,92.35,35.07,2-3
13:46:27,0.568733,92.35,35.07,2-3
13:46:27,0.570013,92.35,35.07,2-3
13:46:28,0.572574,92.37,35.07,2-3
13:46:28,0.572574,92.37,35.07,2-3
13:46:28,0.578975,92.37,35.07,2-3
13:46:28,0.578975,92.37,35.07,2-3
13:46:29,0.578975,92.37,35.07,2-3
13:46:29,0.576414,92.37,35.07,2-3
13:46:29,0.577695,92.37,35.07,2-3
13:46:29,0.581535,92.37,35.07,2-3
13:46:30,0.581535,92.42,35.05,2-3
13:46:30,0.584095,92.42,35.05,2-3
13:46:30,0.582815,92.42,35.05,2-3
13:46:30,0.602018,92.42,35.05,2-3
13:46:31,0.607139,92.58,35.07,2-3
13:46:31,0.649384,92.58,35.07,2-3
13:46:31,0.676268,92.58,35.07,2-3
13:46:31,0.68779,92.58,35.07,2-3
13:46:32,0.685229,92.75,35.05,2-3
13:46:32,0.68907,92.75,35.05,2-3
13:46:32,0.69035,92.75,35.05,2-3
13:46:32,0.68907,92.75,35.05,2-3
13:46:33,0.69163,92.93,35.05,2-3
13:46:33,0.6980310000000001,92.93,35.05,2-3
13:46:33,0.709553,92.93,35.05,2-3
13:46:33,0.715953,92.93,35.05,2-3
13:46:34,0.7197939999999999,93.15,34.91,2-3
13:46:34,0.718514,93.15,34.91,2-3
13:46:34,0.721074,93.15,34.91,2-3
13:46:34,0.722354,93.15,34.91,2-3
13:46:35,0.721074,93.38,34.83,2-3
13:46:35,0.721074,93.38,34.83,2-3
13:46:35,0.721074,93.38,34.83,2-3
13:46:35,0.721074,93.38,34.83,2-3
13:46:36,0.7197939999999999,93.67,34.66,2-3
13:46:36,0.7197939999999999,93.67,34.66,2-3
13:46:36,0.721074,93.67,34.66,2-3
13:46:36,0.718514,93.67,34.66,2-3
13:46:37,0.721074,94.0,34.61,2-3
13:46:37,0.7197939999999999,94.0,34.61,2-3
13:46:37,0.718514,94.0,34.61,2-3
13:46:37,0.721074,94.0,34.61,2-3
13:46:38,0.7197939999999999,94.33,34.61,2-3
13:46:38,0.723634,94.33,34.61,2-3
13:46:38,0.722354,94.33,34.61,2-3
13:46:38,0.723634,94.33,34.61,2-3
13:46:39,0.721074,94.62,34.55,2-3
13:46:39,0.723634,94.62,34.55,2-3
13:46:39,0.721074,94.62,34.55,2-3
13:46:39,0.721074,94.62,34.55,2-3
13:46:40,0.721074,94.9,34.53,2-3
13:46:40,0.7197939999999999,94.9,34.53,2-3
13:46:40,0.718514,94.9,34.53,2-3
13:46:40,0.717234,94.9,34.53,2-3
13:46:41,0.718514,95.18,34.53,2-3
13:46:41,0.717234,95.18,34.53,2-3
13:46:41,0.717234,95.18,34.53,2-3
13:46:41,0.715953,95.18,34.53,2-3
13:46:42,0.7197939999999999,95.47,34.5,2-3
13:46:42,0.717234,95.47,34.5,2-3
13:46:42,0.718514,95.47,34.5,2-3
13:46:42,0.718514,95.47,34.5,2-3
13:46:43,0.717234,95.57,34.39,2-3
13:46:43,0.718514,95.57,34.39,2-3
13:46:43,0.717234,95.57,34.39,2-3
13:46:43,0.715953,95.57,34.39,2-3
13:46:44,0.713393,95.68,34.47,2-3
13:46:44,0.713393,95.68,34.47,2-3
13:46:44,0.717234,95.68,34.47,2-3
13:46:44,0.732596,95.68,34.47,2-3
13:46:45,0.457358,95.8,34.49,2-3
13:46:45,0.512337,95.8,34.49,2-3
13:46:45,0.560983,95.8,34.49,2-3
13:46:45,0.600669,95.8,34.49,2-3
13:46:46,0.658276,95.87,34.59,2-3
13:46:46,0.654436,95.87,34.59,2-3
13:46:46,0.651876,95.87,34.59,2-3
13:46:46,0.68516,95.87,34.59,2-3
13:46:47,0.694121,95.93,34.73,2-3
13:46:47,0.697962,95.93,34.73,2-3
13:46:47,0.696682,95.93,34.73,2-3
13:46:47,0.6954020000000001,95.93,34.73,2-3
13:46:48,0.6954020000000001,95.98,34.79,2-3
13:46:48,0.6954020000000001,95.98,34.79,2-3
13:46:48,0.694121,95.98,34.79,2-3
13:46:48,0.692841,95.98,34.79,2-3
13:46:49,0.691561,95.97,34.81,2-3
13:46:49,0.694121,95.97,34.81,2-3
13:46:49,0.694121,95.97,34.81,2-3
13:46:49,0.6954020000000001,95.97,34.81,2-3
13:46:50,0.696682,95.97,34.81,2-3
13:46:50,0.6954020000000001,95.97,34.81,2-3
13:46:50,0.697962,95.97,34.81,2-3
13:46:50,0.696682,95.97,34.81,2-3
13:46:51,0.696682,95.93,34.83,2-3
13:46:51,0.696682,95.93,34.83,2-3
13:46:51,0.6954020000000001,95.93,34.83,2-3
13:46:51,0.6954020000000001,95.93,34.83,2-3
13:46:52,0.694121,95.88,34.81,2-3
13:46:52,0.6954020000000001,95.88,34.81,2-3
13:46:52,0.6954020000000001,95.88,34.81,2-3
13:46:52,0.694121,95.88,34.81,2-3
13:46:53,0.692841,95.83,34.81,2-3
13:46:53,0.694121,95.83,34.81,2-3
13:46:53,0.694121,95.83,34.81,2-3
13:46:53,0.692841,95.83,34.81,2-3
13:46:54,0.690281,95.77,34.81,2-3
13:46:54,0.692841,95.77,34.81,2-3
13:46:54,0.690281,95.77,34.81,2-3
13:46:54,0.689001,95.77,34.81,2-3
13:46:55,0.689001,95.7,34.83,2-3
13:46:55,0.689001,95.7,34.83,2-3
13:46:55,0.68388,95.7,34.83,2-3
13:46:55,0.795255,95.7,34.83,2-3
13:46:56,0.750449,95.68,34.83,2-3
13:46:56,0.723565,95.68,34.83,2-3
13:46:56,0.745328,95.68,34.83,2-3
13:46:56,0.741488,95.68,34.83,2-3
13:46:57,0.742768,95.73,34.83,2-3
13:46:57,0.745328,95.73,34.83,2-3
13:46:57,0.745328,95.73,34.83,2-3
13:46:57,0.749169,95.73,34.83,2-3
13:46:58,0.768372,95.75,34.81,2-3
13:46:58,0.776053,95.75,34.81,2-3
13:46:58,0.776053,95.75,34.81,2-3
13:46:58,0.7440479999999999,95.75,34.81,2-3
13:46:59,0.736367,95.8,34.81,2-3
13:46:59,0.737647,95.8,34.81,2-3
13:46:59,0.740208,95.8,34.81,2-3
13:46:59,0.737647,95.8,34.81,2-3
13:47:00,0.7350869999999999,95.88,34.81,2-3
13:47:00,0.732527,95.88,34.81,2-3
13:47:00,0.724846,95.88,34.81,2-3
13:47:00,0.726126,95.88,34.81,2-3
13:47:01,0.728686,95.97,34.81,2-3
13:47:01,0.724846,95.97,34.81,2-3
13:47:01,0.726126,95.97,34.81,2-3
13:47:01,0.7171649999999999,95.97,34.81,2-3
13:47:02,0.723565,96.03,34.81,2-3
13:47:02,0.726126,96.03,34.81,2-3
13:47:02,0.727406,96.03,34.81,2-3
13:47:02,0.75685,96.03,34.81,2-3
13:47:03,0.763251,96.15,34.81,2-3
13:47:03,0.767091,96.15,34.81,2-3
13:47:03,0.767091,96.15,34.81,2-3
13:47:03,0.767091,96.15,34.81,2-3
13:47:04,0.769652,96.22,34.81,2-3
13:47:04,0.770932,96.22,34.81,2-3
13:47:04,0.770932,96.22,34.81,2-3
13:47:04,0.75557,96.22,34.81,2-3
13:47:05,0.7645310000000001,96.25,34.81,2-3
13:47:05,0.740208,96.25,34.81,2-3
13:47:05,0.7440479999999999,96.25,34.81,2-3
13:47:05,0.737647,96.25,34.81,2-3
13:47:06,0.699242,96.27,34.81,2-3
13:47:06,0.6826,96.27,34.81,2-3
13:47:06,0.678759,96.27,34.81,2-3
13:47:06,0.691561,96.27,34.81,2-3
13:47:07,0.701802,96.22,34.81,2-3
13:47:07,0.671078,96.22,34.81,2-3
13:47:07,0.6531560000000001,96.22,34.81,2-3
13:47:07,0.633953,96.22,34.81,2-3
13:47:08,0.616031,96.18,34.79,2-3
13:47:08,0.60963,96.18,34.79,2-3
13:47:08,0.626272,96.18,34.79,2-3
13:47:08,0.641634,96.18,34.79,2-3
13:47:09,0.642914,96.17,34.79,2-3
13:47:09,0.644195,96.17,34.79,2-3
13:47:09,0.635233,96.17,34.79,2-3
13:47:09,0.639074,96.17,34.79,2-3
13:47:10,0.642914,96.25,34.81,2-3
13:47:10,0.646755,96.25,34.81,2-3
13:47:10,0.648035,96.25,34.81,2-3
13:47:10,0.648035,96.25,34.81,2-3
13:47:11,0.648035,96.32,34.79,2-3
13:47:11,0.650595,96.32,34.79,2-3
13:47:11,0.651876,96.32,34.79,2-3
13:47:11,0.648035,96.32,34.79,2-3
13:47:12,0.649315,96.42,34.81,2-3
13:47:12,0.649315,96.42,34.81,2-3
13:47:12,0.649315,96.42,34.81,2-3
13:47:12,0.645475,96.42,34.81,2-3
13:47:13,0.648035,96.53,34.83,2-3
13:47:13,0.645475,96.53,34.83,2-3
13:47:13,0.645475,96.53,34.83,2-3
13:47:13,0.642914,96.53,34.83,2-3
13:47:14,0.640354,96.72,34.83,2-3
13:47:14,0.631393,96.72,34.83,2-3
13:47:14,0.624992,96.72,34.83,2-3
13:47:14,0.631393,96.72,34.83,2-3
13:47:15,0.630113,96.93,34.83,2-3
13:47:15,0.635233,96.93,34.83,2-3
13:47:15,0.630113,96.93,34.83,2-3
13:47:15,0.636514,96.93,34.83,2-3
13:47:16,0.639074,97.18,34.81,2-3
13:47:16,0.644195,97.18,34.81,2-3
13:47:16,0.650595,97.18,34.81,2-3
13:47:16,0.68388,97.18,34.81,2-3
13:47:17,0.660837,97.43,34.83,2-3
13:47:17,0.700522,97.43,34.83,2-3
13:47:17,0.700522,97.43,34.83,2-3
13:47:17,0.631393,97.43,34.83,2-3
13:47:18,0.628832,97.7,34.81,2-3
13:47:18,0.630113,97.7,34.81,2-3
13:47:18,0.278065,97.7,34.81,2-3
13:47:18,0.557143,97.7,34.81,2-3
13:47:19,0.6531560000000001,97.93,34.81,2-3
13:47:19,0.630113,97.93,34.81,2-3
13:47:19,0.633953,97.93,34.81,2-3
13:47:19,0.655716,97.93,34.81,2-3
13:47:20,0.651876,98.17,34.81,2-3
13:47:20,0.636514,98.17,34.81,2-3
13:47:20,0.630113,98.17,34.81,2-3
13:47:20,0.6326729999999999,98.17,34.81,2-3
13:47:21,0.624992,98.42,34.81,2-3
13:47:21,0.642914,98.42,34.81,2-3
13:47:21,0.655716,98.42,34.81,2-3
13:47:21,0.651876,98.42,34.81,2-3
13:47:22,0.658276,98.63,34.79,3-4
13:47:22,0.654436,98.63,34.79,3-4
13:47:22,0.6685180000000001,98.63,34.79,3-4
13:47:22,0.672358,98.63,34.79,3-4
13:47:23,0.6659579999999999,98.95,34.73,3-4
13:47:23,0.619871,98.95,34.73,3-4
13:47:23,0.636514,98.95,34.73,3-4
13:47:23,0.645475,98.95,34.73,3-4
13:47:24,0.644195,99.28,34.66,3-4
13:47:24,0.660837,99.28,34.66,3-4
13:47:24,0.699242,99.28,34.66,3-4
13:47:24,0.709484,99.28,34.66,3-4
13:47:25,0.713324,99.6,34.65,3-4
13:47:25,0.712044,99.6,34.65,3-4
13:47:25,0.708203,99.6,34.65,3-4
13:47:25,0.704363,99.6,34.65,3-4
13:47:26,0.703083,99.87,34.71,3-4
13:47:26,0.701802,99.87,34.71,3-4
13:47:26,0.701802,99.87,34.71,3-4
13:47:26,0.699242,99.87,34.71,3-4
13:47:27,0.696682,100.2,34.73,3-4
13:47:27,0.697962,100.2,34.73,3-4
13:47:27,0.694121,100.2,34.73,3-4
13:47:27,0.694121,100.2,34.73,3-4
13:47:28,0.694121,100.53,34.75,3-4
13:47:28,0.691561,100.53,34.75,3-4
13:47:28,0.689001,100.53,34.75,3-4
13:47:28,0.687721,100.53,34.75,3-4
13:47:29,0.691561,100.88,34.75,3-4
13:47:29,0.690281,100.88,34.75,3-4
13:47:29,0.687721,100.88,34.75,3-4
13:47:29,0.6864399999999999,100.88,34.75,3-4
13:47:30,0.6864399999999999,101.08,34.77,3-4
13:47:30,0.68516,101.08,34.77,3-4
13:47:30,0.68388,101.08,34.77,3-4
13:47:30,0.68388,101.08,34.77,3-4
13:47:31,0.6826,101.18,34.77,3-4
13:47:31,0.6826,101.18,34.77,3-4
13:47:31,0.68132,101.18,34.77,3-4
13:47:31,0.6800390000000001,101.18,34.77,3-4
13:47:32,0.676199,101.3,34.79,3-4
13:47:32,0.659557,101.3,34.79,3-4
13:47:32,0.6659579999999999,101.3,34.79,3-4
13:47:32,0.660837,101.3,34.79,3-4
13:47:33,0.655716,101.37,34.77,3-4
13:47:33,0.6531560000000001,101.37,34.77,3-4
13:47:33,0.660837,101.37,34.77,3-4
13:47:33,0.6774789999999999,101.37,34.77,3-4
13:47:34,0.673639,101.42,34.77,3-4
13:47:34,0.6749189999999999,101.42,34.77,3-4
13:47:34,0.6774789999999999,101.42,34.77,3-4
13:47:34,0.672358,101.42,34.77,3-4
13:47:35,0.672358,101.48,34.79,3-4
13:47:35,0.672358,101.48,34.79,3-4
13:47:35,0.671078,101.48,34.79,3-4
13:47:35,0.669798,101.48,34.79,3-4
13:47:36,0.671078,101.48,34.79,3-4
13:47:36,0.672358,101.48,34.79,3-4
13:47:36,0.669798,101.48,34.79,3-4
13:47:36,0.6685180000000001,101.48,34.79,3-4
13:47:37,0.667238,101.4,34.79,3-4
13:47:37,0.6659579999999999,101.4,34.79,3-4
13:47:37,0.6646770000000001,101.4,34.79,3-4
13:47:37,0.663397,101.4,34.79,3-4
13:47:38,0.663397,101.28,34.79,3-4
13:47:38,0.663397,101.28,34.79,3-4
13:47:38,0.659557,101.28,34.79,3-4
13:47:38,0.662117,101.28,34.79,3-4
13:47:39,0.659557,101.23,34.79,3-4
13:47:39,0.660837,101.23,34.79,3-4
13:47:39,0.660837,101.23,34.79,3-4
13:47:39,0.658276,101.23,34.79,3-4
13:47:40,0.659557,100.9,34.77,3-4
13:47:40,0.659557,100.9,34.77,3-4
13:47:40,0.655716,100.9,34.77,3-4
13:47:40,0.654436,100.9,34.77,3-4
13:47:41,0.654436,100.57,34.79,3-4
13:47:41,0.655716,100.57,34.79,3-4
13:47:41,0.651876,100.57,34.79,3-4
13:47:41,0.6531560000000001,100.57,34.79,3-4
13:47:42,0.650595,100.25,34.79,3-4
13:47:42,0.654436,100.25,34.79,3-4
13:47:42,0.650595,100.25,34.79,3-4
13:47:42,0.651876,100.25,34.79,3-4
13:47:43,0.649315,100.12,34.81,3-4
13:47:43,0.648035,100.12,34.81,3-4
13:47:43,0.648035,100.12,34.81,3-4
13:47:43,0.646755,100.12,34.81,3-4
13:47:44,0.646755,99.97,34.81,3-4
13:47:44,0.645475,99.97,34.81,3-4
13:47:44,0.645475,99.97,34.81,3-4
13:47:44,0.644195,99.97,34.81,3-4
13:47:45,0.641634,99.88,34.79,3-4
13:47:45,0.645475,99.88,34.79,3-4
13:47:45,0.641634,99.88,34.79,3-4
13:47:45,0.641634,99.88,34.79,3-4
13:47:46,0.642914,99.88,34.81,3-4
13:47:46,0.644195,99.88,34.81,3-4
13:47:46,0.642914,99.88,34.81,3-4
13:47:46,0.640354,99.88,34.81,3-4
13:47:47,0.6173109999999999,99.88,34.81,3-4
13:47:47,0.550742,99.88,34.81,3-4
13:47:47,0.558423,99.88,34.81,3-4
13:47:47,0.564824,99.88,34.81,3-4
13:47:48,0.5635439999999999,99.85,34.79,3-4
13:47:48,0.560983,99.85,34.79,3-4
13:47:48,0.557143,99.85,34.79,3-4
13:47:48,0.527699,99.85,34.79,3-4
13:47:49,0.528979,99.85,34.83,3-4
13:47:49,0.530259,99.85,34.83,3-4
13:47:49,0.522578,99.85,34.83,3-4
13:47:49,0.531539,99.85,34.83,3-4
13:47:50,0.5341,99.78,34.83,3-4
13:47:50,0.53794,99.78,34.83,3-4
13:47:50,0.53922,99.78,34.83,3-4
13:47:50,0.543061,99.78,34.83,3-4
13:47:51,0.544341,99.57,34.79,3-4
13:47:51,0.543061,99.57,34.79,3-4
13:47:51,0.543061,99.57,34.79,3-4
13:47:51,0.544341,99.57,34.79,3-4
13:47:52,0.545621,99.35,34.81,3-4
13:47:52,0.545621,99.35,34.81,3-4
13:47:52,0.53922,99.35,34.81,3-4
13:47:52,0.544341,99.35,34.81,3-4
13:47:53,0.546901,99.08,34.83,3-4
13:47:53,0.549462,99.08,34.83,3-4
13:47:53,0.548181,99.08,34.83,3-4
13:47:53,0.549462,99.08,34.83,3-4
13:47:54,0.548181,98.87,34.83,3-4
13:47:54,0.548181,98.87,34.83,3-4
13:47:54,0.550742,98.87,34.83,3-4
13:47:54,0.550742,98.87,34.83,3-4
13:47:55,0.552022,98.63,34.81,3-4
13:47:55,0.5533020000000001,98.63,34.81,3-4
13:47:55,0.5533020000000001,98.63,34.81,3-4
13:47:55,0.554582,98.63,34.81,3-4
13:47:56,0.5533020000000001,98.4,34.81,3-4
13:47:56,0.554582,98.4,34.81,3-4
13:47:56,0.555863,98.4,34.81,3-4
13:47:56,0.5533020000000001,98.4,34.81,3-4
13:47:57,0.554582,98.17,34.79,3-4
13:47:57,0.5533020000000001,98.17,34.79,3-4
13:47:57,0.552022,98.17,34.79,3-4
13:47:57,0.552022,98.17,34.79,3-4
13:47:58,0.5533020000000001,97.98,34.83,3-4
13:47:58,0.5533020000000001,97.98,34.83,3-4
13:47:58,0.552022,97.98,34.83,3-4
13:47:58,0.5533020000000001,97.98,34.83,3-4
13:47:59,0.552022,97.73,34.81,3-4
13:47:59,0.552022,97.73,34.81,3-4
13:47:59,0.552022,97.73,34.81,3-4
13:47:59,0.552022,97.73,34.81,3-4
13:48:00,0.550742,97.47,34.83,3-4
13:48:00,0.550742,97.47,34.83,3-4
13:48:00,0.549462,97.47,34.83,3-4
13:48:00,0.552022,97.47,34.83,3-4
13:48:01,0.5533020000000001,97.25,34.83,3-4
13:48:01,0.555863,97.25,34.83,3-4
13:48:01,0.557143,97.25,34.83,3-4
13:48:01,0.557143,97.25,34.83,3-4
13:48:02,0.5059359999999999,97.05,34.83,3-4
13:48:02,0.44832799999999995,97.05,34.83,3-4
13:48:02,0.280625,97.05,34.83,3-4
13:48:02,0.28318499999999996,97.05,34.83,3-4
13:48:03,0.310069,96.78,34.83,3-4
13:48:03,0.33311199999999996,96.78,34.83,3-4
13:48:03,0.343354,96.78,34.83,3-4
13:48:03,0.359996,96.78,34.83,3-4
13:48:04,0.43040500000000004,96.42,34.83,3-4
13:48:04,0.46113000000000004,96.42,34.83,3-4
13:48:04,0.47777200000000003,96.42,34.83,3-4
13:48:04,0.48417299999999996,96.42,34.83,3-4
13:48:05,0.48417299999999996,96.12,34.81,3-4
13:48:05,0.48417299999999996,96.12,34.81,3-4
13:48:05,0.48545299999999997,96.12,34.81,3-4
13:48:05,0.48673299999999997,96.12,34.81,3-4
13:48:06,0.480332,95.82,34.83,3-4
13:48:06,0.482893,95.82,34.83,3-4
13:48:06,0.48417299999999996,95.82,34.83,3-4
13:48:06,0.49697399999999997,95.82,34.83,3-4
13:48:07,0.5084960000000001,95.57,34.83,3-4
13:48:07,0.49057399999999995,95.57,34.83,3-4
13:48:07,0.512337,95.57,34.83,3-4
13:48:07,0.48673299999999997,95.57,34.83,3-4
13:48:08,0.480332,95.32,34.83,3-4
13:48:08,0.517457,95.32,34.83,3-4
13:48:08,0.522578,95.32,34.83,3-4
13:48:08,0.5212979999999999,95.32,34.83,3-4
13:48:09,0.514897,95.13,34.81,3-4
13:48:09,0.518737,95.13,34.81,3-4
13:48:09,0.525138,95.13,34.81,3-4
13:48:09,0.523858,95.13,34.81,3-4
13:48:10,0.525138,95.0,34.81,3-4
13:48:10,0.527699,95.0,34.81,3-4
13:48:10,0.528979,95.0,34.81,3-4
13:48:10,0.528979,95.0,34.81,3-4
13:48:11,0.528979,94.75,34.81,3-4
13:48:11,0.528979,94.75,34.81,3-4
13:48:11,0.523858,94.75,34.81,3-4
13:48:11,0.527699,94.75,34.81,3-4
13:48:12,0.528979,94.52,34.79,3-4
13:48:12,0.530259,94.52,34.79,3-4
13:48:12,0.530259,94.52,34.79,3-4
13:48:12,0.526419,94.52,34.79,3-4
13:48:13,0.525138,94.25,34.83,3-4
13:48:13,0.523858,94.25,34.83,3-4
13:48:13,0.523858,94.25,34.83,3-4
13:48:13,0.525138,94.25,34.83,3-4
13:48:14,0.520018,94.28,34.83,3-4
13:48:14,0.48417299999999996,94.28,34.83,3-4
13:48:14,0.48673299999999997,94.28,34.83,3-4
13:48:14,0.494414,94.28,34.83,3-4
13:48:15,0.48417299999999996,94.28,34.83,3-4
13:48:15,0.47521199999999997,94.28,34.83,3-4
13:48:15,0.48673299999999997,94.28,34.83,3-4
13:48:15,0.500815,94.28,34.83,3-4
13:48:16,0.502095,94.25,34.83,3-4
13:48:16,0.49569399999999997,94.25,34.83,3-4
13:48:16,0.48673299999999997,94.25,34.83,3-4
13:48:16,0.476492,94.25,34.83,3-4
13:48:17,0.47393100000000005,94.2,34.81,3-4
13:48:17,0.46753,94.2,34.81,3-4
13:48:17,0.46113000000000004,94.2,34.81,3-4
13:48:17,0.45984899999999995,94.2,34.81,3-4
13:48:18,0.45856899999999995,94.15,34.81,3-4
13:48:18,0.45984899999999995,94.15,34.81,3-4
13:48:18,0.45856899999999995,94.15,34.81,3-4
13:48:18,0.45728900000000006,94.15,34.81,3-4
13:48:19,0.45728900000000006,94.13,34.81,3-4
13:48:19,0.45856899999999995,94.13,34.81,3-4
13:48:19,0.46113000000000004,94.13,34.81,3-4
13:48:19,0.45856899999999995,94.13,34.81,3-4
13:48:20,0.45856899999999995,94.12,34.81,3-4
13:48:20,0.450888,94.12,34.81,3-4
13:48:20,0.44448699999999997,94.12,34.81,3-4
13:48:20,0.44448699999999997,94.12,34.81,3-4
13:48:21,0.439367,94.0,34.83,3-4
13:48:21,0.438086,94.0,34.83,3-4
13:48:21,0.438086,94.0,34.83,3-4
13:48:21,0.434246,94.0,34.83,3-4
13:48:22,0.43296599999999996,93.98,34.83,3-4
13:48:22,0.429125,93.98,34.83,3-4
13:48:22,0.42656499999999997,93.98,34.83,3-4
13:48:22,0.42656499999999997,93.98,34.83,3-4
13:48:23,0.42656499999999997,93.87,34.81,3-4
13:48:23,0.424005,93.87,34.81,3-4
13:48:23,0.424005,93.87,34.81,3-4
13:48:23,0.424005,93.87,34.81,3-4
13:48:24,0.422724,93.73,34.83,3-4
13:48:24,0.421444,93.73,34.83,3-4
13:48:24,0.41888400000000003,93.73,34.83,3-4
13:48:24,0.417604,93.73,34.83,3-4
13:48:25,0.42016400000000004,93.58,34.84,3-4
13:48:25,0.41888400000000003,93.58,34.84,3-4
13:48:25,0.41888400000000003,93.58,34.84,3-4
13:48:25,0.417604,93.58,34.84,3-4
13:48:26,0.41504300000000005,93.48,34.83,3-4
13:48:26,0.41504300000000005,93.48,34.83,3-4
13:48:26,0.41504300000000005,93.48,34.83,3-4
13:48:26,0.41504300000000005,93.48,34.83,3-4
13:48:27,0.413763,93.3,34.84,3-4
13:48:27,0.413763,93.3,34.84,3-4
13:48:27,0.413763,93.3,34.84,3-4
13:48:27,0.413763,93.3,34.84,3-4
13:48:28,0.413763,93.08,34.83,3-4
13:48:28,0.411203,93.08,34.83,3-4
13:48:28,0.412483,93.08,34.83,3-4
13:48:28,0.409923,93.08,34.83,3-4
13:48:29,0.411203,92.83,34.83,3-4
13:48:29,0.411203,92.83,34.83,3-4
13:48:29,0.408642,92.83,34.83,3-4
13:48:29,0.404802,92.83,34.83,3-4
13:48:30,0.406082,92.67,34.84,3-4
13:48:30,0.403522,92.67,34.84,3-4
13:48:30,0.402242,92.67,34.84,3-4
13:48:30,0.403522,92.67,34.84,3-4
13:48:31,0.403522,92.5,34.83,3-4
13:48:31,0.403522,92.5,34.83,3-4
13:48:31,0.403522,92.5,34.83,3-4
13:48:31,0.403522,92.5,34.83,3-4
13:48:32,0.402242,92.33,34.84,3-4
13:48:32,0.402242,92.33,34.84,3-4
13:48:32,0.402242,92.33,34.84,3-4
13:48:32,0.399681,92.33,34.84,3-4
13:48:33,0.395841,92.25,34.83,3-4
13:48:33,0.397121,92.25,34.83,3-4
13:48:33,0.395841,92.25,34.83,3-4
13:48:33,0.397121,92.25,34.83,3-4
13:48:34,0.397121,92.1,34.83,3-4
13:48:34,0.395841,92.1,34.83,3-4
13:48:34,0.39328,92.1,34.83,3-4
13:48:34,0.395841,92.1,34.83,3-4
13:48:35,0.39455999999999997,91.9,34.83,3-4
13:48:35,0.395841,91.9,34.83,3-4
13:48:35,0.39328,91.9,34.83,3-4
13:48:35,0.39071999999999996,91.9,34.83,3-4
13:48:36,0.392,91.72,34.84,3-4
13:48:36,0.39071999999999996,91.72,34.84,3-4
13:48:36,0.38944,91.72,34.84,3-4
13:48:36,0.38944,91.72,34.84,3-4
13:48:37,0.38944,91.57,34.83,3-4
13:48:37,0.38944,91.57,34.83,3-4
13:48:37,0.386879,91.57,34.83,3-4
13:48:37,0.38944,91.57,34.83,3-4
13:48:38,0.38816,91.57,34.83,3-4
13:48:38,0.38816,91.57,34.83,3-4
13:48:38,0.38816,91.57,34.83,3-4
13:48:38,0.38816,91.57,34.83,3-4
13:48:39,0.38559899999999997,91.52,34.83,3-4
13:48:39,0.38816,91.52,34.83,3-4
13:48:39,0.38559899999999997,91.52,34.83,3-4
13:48:39,0.384319,91.52,34.83,3-4
13:48:40,0.384319,91.7,34.81,3-4
13:48:40,0.38559899999999997,91.7,34.81,3-4
13:48:40,0.384319,91.7,34.81,3-4
13:48:40,0.38303899999999996,91.7,34.81,3-4
13:48:41,0.380479,91.85,34.84,3-4
13:48:41,0.38303899999999996,91.85,34.84,3-4
13:48:41,0.384319,91.85,34.84,3-4
13:48:41,0.381759,91.85,34.84,3-4
13:48:42,0.380479,91.93,34.84,3-4
13:48:42,0.380479,91.93,34.84,3-4
13:48:42,0.380479,91.93,34.84,3-4
13:48:42,0.37663800000000003,91.93,34.84,3-4
13:48:43,0.379198,92.02,34.84,3-4
13:48:43,0.381759,92.02,34.84,3-4
13:48:43,0.37663800000000003,92.02,34.84,3-4
13:48:43,0.37663800000000003,92.02,34.84,3-4
13:48:44,0.37535799999999997,92.13,34.81,3-4
13:48:44,0.37663800000000003,92.13,34.81,3-4
13:48:44,0.37535799999999997,92.13,34.81,3-4
13:48:44,0.37535799999999997,92.13,34.81,3-4
13:48:45,0.37535799999999997,92.22,34.84,3-4
13:48:45,0.37663800000000003,92.22,34.84,3-4
13:48:45,0.37663800000000003,92.22,34.84,3-4
13:48:45,0.37535799999999997,92.22,34.84,3-4
13:48:46,0.37535799999999997,92.3,34.84,3-4
13:48:46,0.374078,92.3,34.84,3-4
13:48:46,0.374078,92.3,34.84,3-4
13:48:46,0.371517,92.3,34.84,3-4
13:48:47,0.372798,92.25,34.84,3-4
13:48:47,0.372798,92.25,34.84,3-4
13:48:47,0.36895700000000003,92.25,34.84,3-4
13:48:47,0.36895700000000003,92.25,34.84,3-4
13:48:48,0.36895700000000003,92.22,34.84,3-4
13:48:48,0.36895700000000003,92.22,34.84,3-4
13:48:48,0.366397,92.22,34.84,3-4
13:48:48,0.367677,92.22,34.84,3-4
13:48:49,0.366397,92.2,34.84,3-4
13:48:49,0.365116,92.2,34.84,3-4
13:48:49,0.363836,92.2,34.84,3-4
13:48:49,0.363836,92.2,34.84,3-4
13:48:50,0.363836,92.2,34.84,3-4
13:48:50,0.36127600000000004,92.2,34.84,3-4
13:48:50,0.36127600000000004,92.2,34.84,3-4
13:48:50,0.359996,92.2,34.84,3-4
13:48:51,0.359996,92.32,34.87,3-4
13:48:51,0.36127600000000004,92.32,34.87,3-4
13:48:51,0.362556,92.32,34.87,3-4
13:48:51,0.36127600000000004,92.32,34.87,3-4
13:48:52,0.36127600000000004,92.4,34.87,3-4
13:48:52,0.358716,92.4,34.87,3-4
13:48:52,0.362556,92.4,34.87,3-4
13:48:52,0.358716,92.4,34.87,3-4
13:48:53,0.357435,92.57,34.84,3-4
13:48:53,0.357435,92.57,34.84,3-4
13:48:53,0.357435,92.57,34.84,3-4
13:48:53,0.356155,92.57,34.84,3-4
13:48:54,0.363836,92.72,34.84,3-4
13:48:54,0.372798,92.72,34.84,3-4
13:48:54,0.384319,92.72,34.84,3-4
13:48:54,0.38944,92.72,34.84,3-4
13:48:55,0.38944,92.92,34.87,3-4
13:48:55,0.38944,92.92,34.87,3-4
13:48:55,0.38944,92.92,34.87,3-4
13:48:55,0.38816,92.92,34.87,3-4
13:48:56,0.38559899999999997,93.1,34.84,3-4
13:48:56,0.38303899999999996,93.1,34.84,3-4
13:48:56,0.381759,93.1,34.84,3-4
13:48:56,0.377918,93.1,34.84,3-4
13:48:57,0.380479,93.3,34.84,3-4
13:48:57,0.377918,93.3,34.84,3-4
13:48:57,0.374078,93.3,34.84,3-4
13:48:57,0.371517,93.3,34.84,3-4
13:48:58,0.371517,93.43,34.84,3-4
13:48:58,0.36895700000000003,93.43,34.84,3-4
13:48:58,0.367677,93.43,34.84,3-4
13:48:58,0.365116,93.43,34.84,3-4
13:48:59,0.363836,93.58,34.84,3-4
13:48:59,0.363836,93.58,34.84,3-4
13:48:59,0.359996,93.58,34.84,3-4
13:48:59,0.36127600000000004,93.58,34.84,3-4
13:49:00,0.36127600000000004,93.8,34.87,3-4
13:49:00,0.359996,93.8,34.87,3-4
13:49:00,0.359996,93.8,34.87,3-4
13:49:00,0.358716,93.8,34.87,3-4
13:49:01,0.356155,94.0,34.87,3-4
13:49:01,0.357435,94.0,34.87,3-4
13:49:01,0.354875,94.0,34.87,3-4
13:49:01,0.354875,94.0,34.87,3-4
13:49:02,0.353595,94.22,34.87,3-4
13:49:02,0.353595,94.22,34.87,3-4
13:49:02,0.353595,94.22,34.87,3-4
13:49:02,0.352315,94.22,34.87,3-4
13:49:03,0.352315,94.48,34.84,3-4
13:49:03,0.352315,94.48,34.84,3-4
13:49:03,0.349754,94.48,34.84,3-4
13:49:03,0.349754,94.48,34.84,3-4
13:49:04,0.349754,94.87,34.84,3-4
13:49:04,0.34847399999999995,94.87,34.84,3-4
13:49:04,0.34847399999999995,94.87,34.84,3-4
13:49:04,0.345914,94.87,34.84,3-4
13:49:05,0.345914,95.22,34.87,3-4
13:49:05,0.345914,95.22,34.87,3-4
13:49:05,0.345914,95.22,34.87,3-4
13:49:05,0.34847399999999995,95.22,34.87,3-4
13:49:06,0.344634,95.53,34.87,3-4
13:49:06,0.345914,95.53,34.87,3-4
13:49:06,0.344634,95.53,34.87,3-4
13:49:06,0.345914,95.53,34.87,3-4
13:49:07,0.343354,95.83,34.84,3-4
13:49:07,0.342073,95.83,34.84,3-4
13:49:07,0.342073,95.83,34.84,3-4
13:49:07,0.342073,95.83,34.84,3-4
13:49:08,0.343354,96.13,34.84,3-4
13:49:08,0.342073,96.13,34.84,3-4
13:49:08,0.342073,96.13,34.84,3-4
13:49:08,0.342073,96.13,34.84,3-4
13:49:09,0.343354,96.35,34.84,3-4
13:49:09,0.342073,96.35,34.84,3-4
13:49:09,0.339513,96.35,34.84,3-4
13:49:09,0.342073,96.35,34.84,3-4
13:49:10,0.339513,96.47,34.87,3-4
13:49:10,0.339513,96.47,34.87,3-4
13:49:10,0.339513,96.47,34.87,3-4
13:49:10,0.338233,96.47,34.87,3-4
13:49:11,0.339513,96.68,34.87,3-4
13:49:11,0.34079299999999996,96.68,34.87,3-4
13:49:11,0.336953,96.68,34.87,3-4
13:49:11,0.338233,96.68,34.87,3-4
13:49:12,0.33567199999999997,96.9,34.87,3-4
13:49:12,0.336953,96.9,34.87,3-4
13:49:12,0.339513,96.9,34.87,3-4
13:49:12,0.334392,96.9,34.87,3-4
13:49:13,0.336953,97.13,34.87,3-4
13:49:13,0.33567199999999997,97.13,34.87,3-4
13:49:13,0.33567199999999997,97.13,34.87,3-4
13:49:13,0.33567199999999997,97.13,34.87,3-4
13:49:14,0.33567199999999997,97.03,34.84,3-4
13:49:14,0.33567199999999997,97.03,34.84,3-4
13:49:14,0.334392,97.03,34.84,3-4
13:49:14,0.330552,97.03,34.84,3-4
13:49:15,0.32671100000000003,96.97,34.87,3-4
13:49:15,0.353595,96.97,34.87,3-4
13:49:15,0.34847399999999995,96.97,34.87,3-4
13:49:15,0.351035,96.97,34.87,3-4
13:49:16,0.362556,96.97,34.84,3-4
13:49:16,0.379198,96.97,34.84,3-4
13:49:16,0.381759,96.97,34.84,3-4
13:49:16,0.380479,96.97,34.84,3-4
13:49:17,0.38559899999999997,96.98,34.84,3-4
13:49:17,0.39328,96.98,34.84,3-4
13:49:17,0.395841,96.98,34.84,3-4
13:49:17,0.400961,96.98,34.84,3-4
13:49:18,0.400961,97.02,34.84,3-4
13:49:18,0.399681,97.02,34.84,3-4
13:49:18,0.402242,97.02,34.84,3-4
13:49:18,0.402242,97.02,34.84,3-4
13:49:19,0.402242,97.02,34.84,3-4
13:49:19,0.404802,97.02,34.84,3-4
13:49:19,0.404802,97.02,34.84,3-4
13:49:19,0.402242,97.02,34.84,3-4
13:49:20,0.403522,97.0,34.87,3-4
13:49:20,0.403522,97.0,34.87,3-4
13:49:20,0.406082,97.0,34.87,3-4
13:49:20,0.407362,97.0,34.87,3-4
13:49:21,0.406082,96.95,34.87,3-4
13:49:21,0.406082,96.95,34.87,3-4
13:49:21,0.407362,96.95,34.87,3-4
13:49:21,0.408642,96.95,34.87,3-4
13:49:22,0.412483,96.83,34.84,3-4
13:49:22,0.41632299999999994,96.83,34.84,3-4
13:49:22,0.41888400000000003,96.83,34.84,3-4
13:49:22,0.417604,96.83,34.84,3-4
13:49:23,0.41888400000000003,96.72,34.87,3-4
13:49:23,0.421444,96.72,34.87,3-4
13:49:23,0.42016400000000004,96.72,34.87,3-4
13:49:23,0.41888400000000003,96.72,34.87,3-4
13:49:24,0.41888400000000003,96.62,34.87,3-4
13:49:24,0.41888400000000003,96.62,34.87,3-4
13:49:24,0.41888400000000003,96.62,34.87,3-4
13:49:24,0.42016400000000004,96.62,34.87,3-4
13:49:25,0.41888400000000003,96.5,34.84,3-4
13:49:25,0.41888400000000003,96.5,34.84,3-4
13:49:25,0.41888400000000003,96.5,34.84,3-4
13:49:25,0.417604,96.5,34.84,3-4
13:49:26,0.422724,96.35,34.87,3-4
13:49:26,0.42016400000000004,96.35,34.87,3-4
13:49:26,0.417604,96.35,34.87,3-4
13:49:26,0.42016400000000004,96.35,34.87,3-4
13:49:27,0.417604,96.17,34.89,3-4
13:49:27,0.421444,96.17,34.89,3-4
13:49:27,0.421444,96.17,34.89,3-4
13:49:27,0.421444,96.17,34.89,3-4
13:49:28,0.41632299999999994,96.05,34.87,3-4
13:49:28,0.42016400000000004,96.05,34.87,3-4
13:49:28,0.41888400000000003,96.05,34.87,3-4
13:49:28,0.424005,96.05,34.87,3-4
13:49:29,0.41504300000000005,95.98,34.87,3-4
13:49:29,0.413763,95.98,34.87,3-4
13:49:29,0.41888400000000003,95.98,34.87,3-4
13:49:29,0.422724,95.98,34.87,3-4
13:49:30,0.421444,95.97,34.87,3-4
13:49:30,0.43040500000000004,95.97,34.87,3-4
13:49:30,0.436806,95.97,34.87,3-4
13:49:30,0.439367,95.97,34.87,3-4
13:49:31,0.44192700000000007,95.95,34.87,3-4
13:49:31,0.44320699999999996,95.95,34.87,3-4
13:49:31,0.440647,95.95,34.87,3-4
13:49:31,0.439367,95.95,34.87,3-4
13:49:32,0.438086,95.85,34.87,3-4
13:49:32,0.440647,95.85,34.87,3-4
13:49:32,0.435526,95.85,34.87,3-4
13:49:32,0.438086,95.85,34.87,3-4
13:49:33,0.435526,95.7,34.87,3-4
13:49:33,0.439367,95.7,34.87,3-4
13:49:33,0.435526,95.7,34.87,3-4
13:49:33,0.436806,95.7,34.87,3-4
13:49:34,0.434246,95.58,34.87,3-4
13:49:34,0.43296599999999996,95.58,34.87,3-4
13:49:34,0.43168599999999996,95.58,34.87,3-4
13:49:34,0.43296599999999996,95.58,34.87,3-4
13:49:35,0.43296599999999996,95.45,34.89,3-4
13:49:35,0.43296599999999996,95.45,34.89,3-4
13:49:35,0.43296599999999996,95.45,34.89,3-4
13:49:35,0.43296599999999996,95.45,34.89,3-4
13:49:36,0.43296599999999996,95.32,34.87,3-4
13:49:36,0.43168599999999996,95.32,34.87,3-4
13:49:36,0.43296599999999996,95.32,34.87,3-4
13:49:36,0.43040500000000004,95.32,34.87,3-4
13:49:37,0.434246,95.18,34.89,3-4
13:49:37,0.435526,95.18,34.89,3-4
13:49:37,0.438086,95.18,34.89,3-4
13:49:37,0.440647,95.18,34.89,3-4
13:49:38,0.44192700000000007,94.9,34.89,3-4
13:49:38,0.445767,94.9,34.89,3-4
13:49:38,0.44320699999999996,94.9,34.89,3-4
13:49:38,0.44448699999999997,94.9,34.89,3-4
13:49:39,0.445767,94.67,34.89,3-4
13:49:39,0.445767,94.67,34.89,3-4
13:49:39,0.44320699999999996,94.67,34.89,3-4
13:49:39,0.44448699999999997,94.67,34.89,3-4
13:49:40,0.439367,94.42,34.89,3-4
13:49:40,0.440647,94.42,34.89,3-4
13:49:40,0.439367,94.42,34.89,3-4
13:49:40,0.439367,94.42,34.89,3-4
13:49:41,0.440647,94.23,34.87,3-4
13:49:41,0.439367,94.23,34.87,3-4
13:49:41,0.439367,94.23,34.87,3-4
13:49:41,0.436806,94.23,34.87,3-4
13:49:42,0.435526,94.27,34.87,3-4
13:49:42,0.436806,94.27,34.87,3-4
13:49:42,0.436806,94.27,34.87,3-4
13:49:42,0.436806,94.27,34.87,3-4
13:49:43,0.434246,94.3,34.87,3-4
13:49:43,0.435526,94.3,34.87,3-4
13:49:43,0.434246,94.3,34.87,3-4
13:49:43,0.434246,94.3,34.87,3-4
13:49:44,0.438086,94.23,34.87,3-4
13:49:44,0.436806,94.23,34.87,3-4
13:49:44,0.436806,94.23,34.87,3-4
13:49:44,0.434246,94.23,34.87,3-4
13:49:45,0.434246,94.17,34.87,3-4
13:49:45,0.436806,94.17,34.87,3-4
13:49:45,0.434246,94.17,34.87,3-4
13:49:45,0.434246,94.17,34.87,3-4
13:49:46,0.43296599999999996,94.12,34.91,3-4
13:49:46,0.429125,94.12,34.91,3-4
13:49:46,0.411203,94.12,34.91,3-4
13:49:46,0.380479,94.12,34.91,3-4
13:49:47,0.407362,94.18,34.84,3-4
13:49:47,0.417604,94.18,34.84,3-4
13:49:47,0.395841,94.18,34.84,3-4
13:49:47,0.36127600000000004,94.18,34.84,3-4
13:49:48,0.358716,94.28,34.89,3-4
13:49:48,0.36127600000000004,94.28,34.89,3-4
13:49:48,0.358716,94.28,34.89,3-4
13:49:48,0.359996,94.28,34.89,3-4
13:49:49,0.356155,94.35,34.87,3-4
13:49:49,0.354875,94.35,34.87,3-4
13:49:49,0.353595,94.35,34.87,3-4
13:49:49,0.345914,94.35,34.87,3-4
13:49:50,0.344634,94.4,34.87,3-4
13:49:50,0.345914,94.4,34.87,3-4
13:49:50,0.338233,94.4,34.87,3-4
13:49:50,0.34079299999999996,94.4,34.87,3-4
13:49:51,0.339513,94.4,34.84,3-4
13:49:51,0.336953,94.4,34.84,3-4
13:49:51,0.334392,94.4,34.84,3-4
13:49:51,0.336953,94.4,34.84,3-4
13:49:52,0.336953,94.42,34.87,3-4
13:49:52,0.34079299999999996,94.42,34.87,3-4
13:49:52,0.342073,94.42,34.87,3-4
13:49:52,0.336953,94.42,34.87,3-4
13:49:53,0.338233,94.32,34.87,3-4
13:49:53,0.33567199999999997,94.32,34.87,3-4
13:49:53,0.338233,94.32,34.87,3-4
13:49:53,0.33567199999999997,94.32,34.87,3-4
13:49:54,0.33567199999999997,94.22,34.84,3-4
13:49:54,0.336953,94.22,34.84,3-4
13:49:54,0.334392,94.22,34.84,3-4
13:49:54,0.334392,94.22,34.84,3-4
13:49:55,0.334392,94.08,34.84,3-4
13:49:55,0.334392,94.08,34.84,3-4
13:49:55,0.33311199999999996,94.08,34.84,3-4
13:49:55,0.334392,94.08,34.84,3-4
13:49:56,0.331832,93.97,34.84,3-4
13:49:56,0.334392,93.97,34.84,3-4
13:49:56,0.331832,93.97,34.84,3-4
13:49:56,0.32927199999999995,93.97,34.84,3-4
13:49:57,0.327991,93.83,34.84,3-4
13:49:57,0.327991,93.83,34.84,3-4
13:49:57,0.31775,93.83,34.84,3-4
13:49:57,0.32031,93.83,34.84,3-4
13:49:58,0.32031,93.75,34.84,3-4
13:49:58,0.32031,93.75,34.84,3-4
13:49:58,0.322871,93.75,34.84,3-4
13:49:58,0.322871,93.75,34.84,3-4
13:49:59,0.32031,93.63,34.84,3-4
13:49:59,0.31903000000000004,93.63,34.84,3-4
13:49:59,0.31647,93.63,34.84,3-4
13:49:59,0.31903000000000004,93.63,34.84,3-4
13:50:00,0.31775,93.42,34.87,3-4
13:50:00,0.31775,93.42,34.87,3-4
13:50:00,0.31775,93.42,34.87,3-4
13:50:00,0.31775,93.42,34.87,3-4
13:50:01,0.313909,93.18,34.84,3-4
13:50:01,0.312629,93.18,34.84,3-4
13:50:01,0.312629,93.18,34.84,3-4
13:50:01,0.310069,93.18,34.84,3-4
13:50:02,0.308789,92.95,34.87,3-4
13:50:02,0.306228,92.95,34.87,3-4
13:50:02,0.306228,92.95,34.87,3-4
13:50:02,0.306228,92.95,34.87,3-4
13:50:03,0.30750900000000003,92.6,34.84,3-4
13:50:03,0.308789,92.6,34.84,3-4
13:50:03,0.30750900000000003,92.6,34.84,3-4
13:50:03,0.306228,92.6,34.84,3-4
13:50:04,0.303668,92.35,34.84,3-4
13:50:04,0.304948,92.35,34.84,3-4
13:50:04,0.304948,92.35,34.84,3-4
13:50:04,0.301108,92.35,34.84,3-4
13:50:05,0.302388,92.12,34.84,3-4
13:50:05,0.302388,92.12,34.84,3-4
13:50:05,0.302388,92.12,34.84,3-4
13:50:05,0.302388,92.12,34.84,3-4
13:50:06,0.302388,91.93,34.84,3-4
13:50:06,0.301108,91.93,34.84,3-4
13:50:06,0.298547,91.93,34.84,3-4
13:50:06,0.29982800000000004,91.93,34.84,3-4
13:50:07,0.298547,91.73,34.87,3-4
13:50:07,0.302388,91.73,34.87,3-4
13:50:07,0.298547,91.73,34.87,3-4
13:50:07,0.298547,91.73,34.87,3-4
13:50:08,0.295987,91.57,34.83,3-4
13:50:08,0.297267,91.57,34.83,3-4
13:50:08,0.297267,91.57,34.83,3-4
13:50:08,0.298547,91.57,34.83,3-4
13:50:09,0.292147,91.38,34.84,3-4
13:50:09,0.292147,91.38,34.84,3-4
13:50:09,0.293427,91.38,34.84,3-4
13:50:09,0.292147,91.38,34.84,3-4
13:50:10,0.293427,91.18,34.84,3-4
13:50:10,0.293427,91.18,34.84,3-4
13:50:10,0.29086599999999996,91.18,34.84,3-4
13:50:10,0.29086599999999996,91.18,34.84,3-4
13:50:11,0.289586,90.97,34.84,3-4
13:50:11,0.292147,90.97,34.84,3-4
13:50:11,0.294707,90.97,34.84,3-4
13:50:11,0.29086599999999996,90.97,34.84,3-4
13:50:12,0.29086599999999996,90.85,34.87,3-4
13:50:12,0.29086599999999996,90.85,34.87,3-4
13:50:12,0.29086599999999996,90.85,34.87,3-4
13:50:12,0.288306,90.85,34.87,3-4
13:50:13,0.288306,90.75,34.84,3-4
13:50:13,0.289586,90.75,34.84,3-4
13:50:13,0.287026,90.75,34.84,3-4
13:50:13,0.289586,90.75,34.84,3-4
13:50:14,0.288306,90.65,34.84,3-4
13:50:14,0.289586,90.65,34.84,3-4
13:50:14,0.288306,90.65,34.84,3-4
13:50:14,0.285746,90.65,34.84,3-4
13:50:15,0.288306,90.65,34.83,3-4
13:50:15,0.288306,90.65,34.83,3-4
13:50:15,0.287026,90.65,34.83,3-4
13:50:15,0.287026,90.65,34.83,3-4
13:50:16,0.284465,90.58,34.83,3-4
13:50:16,0.284465,90.58,34.83,3-4
13:50:16,0.284465,90.58,34.83,3-4
13:50:16,0.28318499999999996,90.58,34.83,3-4
13:50:17,0.28318499999999996,90.48,34.83,3-4
13:50:17,0.284465,90.48,34.83,3-4
13:50:17,0.284465,90.48,34.83,3-4
13:50:17,0.284465,90.48,34.83,3-4
13:50:18,0.281905,90.37,34.84,3-4
13:50:18,0.28318499999999996,90.37,34.84,3-4
13:50:18,0.280625,90.37,34.84,3-4
13:50:18,0.28318499999999996,90.37,34.84,3-4
13:50:19,0.27934499999999995,90.25,34.84,3-4
13:50:19,0.281905,90.25,34.84,3-4
13:50:19,0.280625,90.25,34.84,3-4
13:50:19,0.280625,90.25,34.84,3-4
13:50:20,0.278065,90.17,34.83,3-4
13:50:20,0.280625,90.17,34.83,3-4
13:50:20,0.27934499999999995,90.17,34.83,3-4
13:50:20,0.27934499999999995,90.17,34.83,3-4
13:50:21,0.280625,90.17,34.83,3-4
13:50:21,0.280625,90.17,34.83,3-4
13:50:21,0.27934499999999995,90.17,34.83,3-4
13:50:21,0.27934499999999995,90.17,34.83,3-4
13:50:22,0.27934499999999995,90.17,34.83,3-4
13:50:22,0.278065,90.17,34.83,3-4
13:50:22,0.278065,90.17,34.83,3-4
13:50:22,0.27678400000000003,90.17,34.83,3-4
13:50:23,0.27550399999999997,90.17,34.84,3-4
13:50:23,0.27934499999999995,90.17,34.84,3-4
13:50:23,0.267823,90.17,34.84,3-4
13:50:23,0.267823,90.17,34.84,3-4
13:50:24,0.26910300000000004,90.18,34.87,3-4
13:50:24,0.270384,90.18,34.87,3-4
13:50:24,0.270384,90.18,34.87,3-4
13:50:24,0.26910300000000004,90.18,34.87,3-4
13:50:25,0.27422399999999997,90.18,34.83,3-4
13:50:25,0.27678400000000003,90.18,34.83,3-4
13:50:25,0.27422399999999997,90.18,34.83,3-4
13:50:25,0.272944,90.18,34.83,3-4
13:50:26,0.27422399999999997,90.2,34.84,3-4
13:50:26,0.27422399999999997,90.2,34.84,3-4
13:50:26,0.27422399999999997,90.2,34.84,3-4
13:50:26,0.27678400000000003,90.2,34.84,3-4
13:50:27,0.27422399999999997,90.27,34.84,3-4
13:50:27,0.27422399999999997,90.27,34.84,3-4
13:50:27,0.27422399999999997,90.27,34.84,3-4
13:50:27,0.27422399999999997,90.27,34.84,3-4
13:50:28,0.27550399999999997,90.3,34.84,3-4
13:50:28,0.272944,90.3,34.84,3-4
13:50:28,0.272944,90.3,34.84,3-4
13:50:28,0.272944,90.3,34.84,3-4
13:50:29,0.272944,90.3,34.81,3-4
13:50:29,0.272944,90.3,34.81,3-4
13:50:29,0.27422399999999997,90.3,34.81,3-4
13:50:29,0.272944,90.3,34.81,3-4
13:50:30,0.272944,90.27,34.81,3-4
13:50:30,0.27550399999999997,90.27,34.81,3-4
13:50:30,0.27550399999999997,90.27,34.81,3-4
13:50:30,0.27422399999999997,90.27,34.81,3-4
13:50:31,0.272944,90.27,34.83,3-4
13:50:31,0.272944,90.27,34.83,3-4
13:50:31,0.270384,90.27,34.83,3-4
13:50:31,0.270384,90.27,34.83,3-4
13:50:32,0.270384,90.4,34.83,3-4
13:50:32,0.270384,90.4,34.83,3-4
13:50:32,0.272944,90.4,34.83,3-4
13:50:32,0.26910300000000004,90.4,34.83,3-4
13:50:33,0.270384,90.57,34.83,3-4
13:50:33,0.270384,90.57,34.83,3-4
13:50:33,0.26910300000000004,90.57,34.83,3-4
13:50:33,0.270384,90.57,34.83,3-4
13:50:34,0.267823,90.77,34.84,3-4
13:50:34,0.26910300000000004,90.77,34.84,3-4
13:50:34,0.26910300000000004,90.77,34.84,3-4
13:50:34,0.267823,90.77,34.84,3-4
13:50:35,0.267823,91.05,34.83,3-4
13:50:35,0.26910300000000004,91.05,34.83,3-4
13:50:35,0.270384,91.05,34.83,3-4
13:50:35,0.270384,91.05,34.83,3-4
13:50:36,0.26910300000000004,91.35,34.83,3-4
13:50:36,0.267823,91.35,34.83,3-4
13:50:36,0.258862,91.35,34.83,3-4
13:50:36,0.261422,91.35,34.83,3-4
13:50:37,0.262702,91.67,34.81,3-4
13:50:37,0.262702,91.67,34.81,3-4
13:50:37,0.262702,91.67,34.81,3-4
13:50:37,0.261422,91.67,34.81,3-4
13:50:38,0.262702,91.95,34.81,3-4
13:50:38,0.266543,91.95,34.81,3-4
13:50:38,0.26398299999999997,91.95,34.81,3-4
13:50:38,0.265263,91.95,34.81,3-4
13:50:39,0.26398299999999997,92.2,34.84,3-4
13:50:39,0.26398299999999997,92.2,34.84,3-4
13:50:39,0.262702,92.2,34.84,3-4
13:50:39,0.26398299999999997,92.2,34.84,3-4
13:50:40,0.261422,92.55,34.84,3-4
13:50:40,0.261422,92.55,34.84,3-4
13:50:40,0.26398299999999997,92.55,34.84,3-4
13:50:40,0.261422,92.55,34.84,3-4
13:50:41,0.26398299999999997,92.85,34.84,3-4
13:50:41,0.265263,92.85,34.84,3-4
13:50:41,0.26398299999999997,92.85,34.84,3-4
13:50:41,0.262702,92.85,34.84,3-4
13:50:42,0.262702,92.98,34.81,3-4
13:50:42,0.262702,92.98,34.81,3-4
13:50:42,0.262702,92.98,34.81,3-4
13:50:42,0.261422,92.98,34.81,3-4
13:50:43,0.260142,93.12,34.83,3-4
13:50:43,0.260142,93.12,34.83,3-4
13:50:43,0.260142,93.12,34.83,3-4
13:50:43,0.262702,93.12,34.83,3-4
13:50:44,0.262702,93.33,34.83,3-4
13:50:44,0.26398299999999997,93.33,34.83,3-4
13:50:44,0.26398299999999997,93.33,34.83,3-4
13:50:44,0.27550399999999997,93.33,34.83,3-4
13:50:45,0.27422399999999997,93.57,34.84,3-4
13:50:45,0.261422,93.57,34.84,3-4
13:50:45,0.281905,93.57,34.84,3-4
13:50:45,0.27678400000000003,93.57,34.84,3-4
13:50:46,0.27422399999999997,93.73,34.83,3-4
13:50:46,0.30750900000000003,93.73,34.83,3-4
13:50:46,0.32159099999999996,93.73,34.83,3-4
13:50:46,0.287026,93.73,34.83,3-4
13:50:47,0.235819,93.9,34.81,3-4
13:50:47,0.22941799999999998,93.9,34.81,3-4
13:50:47,0.31647,93.9,34.81,3-4
13:50:47,0.31775,93.9,34.81,3-4
13:50:48,0.330552,94.05,34.81,3-4
13:50:48,0.33311199999999996,94.05,34.81,3-4
13:50:48,0.33567199999999997,94.05,34.81,3-4
13:50:48,0.338233,94.05,34.81,3-4
13:50:49,0.339513,94.08,34.77,3-4
13:50:49,0.339513,94.08,34.77,3-4
13:50:49,0.345914,94.08,34.77,3-4
13:50:49,0.353595,94.08,34.77,3-4
13:50:50,0.356155,94.13,34.77,3-4
13:50:50,0.359996,94.13,34.77,3-4
13:50:50,0.349754,94.13,34.77,3-4
13:50:50,0.343354,94.13,34.77,3-4
13:50:51,0.331832,94.15,34.77,3-4
13:50:51,0.324151,94.15,34.77,3-4
13:50:51,0.32927199999999995,94.15,34.77,3-4
13:50:51,0.33311199999999996,94.15,34.77,3-4
13:50:52,0.334392,94.18,34.81,3-4
13:50:52,0.33311199999999996,94.18,34.81,3-4
13:50:52,0.33567199999999997,94.18,34.81,3-4
13:50:52,0.32927199999999995,94.18,34.81,3-4
13:50:53,0.32671100000000003,94.25,34.81,3-4
13:50:53,0.327991,94.25,34.81,3-4
13:50:53,0.311349,94.25,34.81,3-4
13:50:53,0.308789,94.25,34.81,3-4
13:50:54,0.32927199999999995,94.23,34.79,3-4
13:50:54,0.330552,94.23,34.79,3-4
13:50:54,0.293427,94.23,34.79,3-4
13:50:54,0.2435,94.23,34.79,3-4
13:50:55,0.25758200000000003,94.23,34.81,3-4
13:50:55,0.288306,94.23,34.81,3-4
13:50:55,0.294707,94.23,34.81,3-4
13:50:55,0.298547,94.23,34.81,3-4
13:50:56,0.298547,94.23,34.81,3-4
13:50:56,0.301108,94.23,34.81,3-4
13:50:56,0.301108,94.23,34.81,3-4
13:50:56,0.303668,94.23,34.81,3-4
13:50:57,0.303668,94.13,34.81,3-4
13:50:57,0.304948,94.13,34.81,3-4
13:50:57,0.30750900000000003,94.13,34.81,3-4
13:50:57,0.30750900000000003,94.13,34.81,3-4
13:50:58,0.308789,93.95,34.81,3-4
13:50:58,0.310069,93.95,34.81,3-4
13:50:58,0.310069,93.95,34.81,3-4
13:50:58,0.306228,93.95,34.81,3-4
13:50:59,0.304948,93.8,34.81,3-4
13:50:59,0.304948,93.8,34.81,3-4
13:50:59,0.306228,93.8,34.81,3-4
13:50:59,0.306228,93.8,34.81,3-4
13:51:00,0.308789,93.65,34.81,3-4
13:51:00,0.312629,93.65,34.81,3-4
13:51:00,0.312629,93.65,34.81,3-4
13:51:00,0.313909,93.65,34.81,3-4
13:51:01,0.310069,93.43,34.81,3-4
13:51:01,0.311349,93.43,34.81,3-4
13:51:01,0.308789,93.43,34.81,3-4
13:51:01,0.311349,93.43,34.81,3-4
13:51:02,0.311349,93.27,34.81,3-4
13:51:02,0.31647,93.27,34.81,3-4
13:51:02,0.312629,93.27,34.81,3-4
13:51:02,0.313909,93.27,34.81,3-4
13:51:03,0.31647,93.17,34.81,3-4
13:51:03,0.32159099999999996,93.17,34.81,3-4
13:51:03,0.324151,93.17,34.81,3-4
13:51:03,0.32543099999999997,93.17,34.81,3-4
13:51:04,0.32543099999999997,93.03,34.79,3-4
13:51:04,0.324151,93.03,34.79,3-4
13:51:04,0.32543099999999997,93.03,34.79,3-4
13:51:04,0.32671100000000003,93.03,34.79,3-4
13:51:05,0.32543099999999997,92.77,34.83,3-4
13:51:05,0.322871,92.77,34.83,3-4
13:51:05,0.32543099999999997,92.77,34.83,3-4
13:51:05,0.324151,92.77,34.83,3-4
13:51:06,0.32671100000000003,92.55,34.83,3-4
13:51:06,0.32543099999999997,92.55,34.83,3-4
13:51:06,0.32671100000000003,92.55,34.83,3-4
13:51:06,0.327991,92.55,34.83,3-4
13:51:07,0.327991,92.13,34.81,3-4
13:51:07,0.330552,92.13,34.81,3-4
13:51:07,0.331832,92.13,34.81,3-4
13:51:07,0.32927199999999995,92.13,34.81,3-4
13:51:08,0.331832,91.67,34.81,3-4
13:51:08,0.32927199999999995,91.67,34.81,3-4
13:51:08,0.330552,91.67,34.81,3-4
13:51:08,0.330552,91.67,34.81,3-4
13:51:09,0.331832,91.25,34.81,3-4
13:51:09,0.334392,91.25,34.81,3-4
13:51:09,0.33311199999999996,91.25,34.81,3-4
13:51:09,0.330552,91.25,34.81,3-4
13:51:10,0.334392,90.88,34.83,3-4
13:51:10,0.330552,90.88,34.83,3-4
13:51:10,0.33311199999999996,90.88,34.83,3-4
13:51:10,0.33311199999999996,90.88,34.83,3-4
13:51:11,0.33311199999999996,90.52,34.81,3-4
13:51:11,0.330552,90.52,34.81,3-4
13:51:11,0.331832,90.52,34.81,3-4
13:51:11,0.33311199999999996,90.52,34.81,3-4
13:51:12,0.33311199999999996,90.02,34.81,3-4
13:51:12,0.334392,90.02,34.81,3-4
13:51:12,0.334392,90.02,34.81,3-4
13:51:12,0.334392,90.02,34.81,3-4
13:51:13,0.33311199999999996,89.47,34.83,3-4
13:51:13,0.33567199999999997,89.47,34.83,3-4
13:51:13,0.336953,89.47,34.83,3-4
13:51:13,0.33311199999999996,89.47,34.83,3-4
13:51:14,0.331832,89.03,34.79,3-4
13:51:14,0.331832,89.03,34.79,3-4
13:51:14,0.344634,89.03,34.79,3-4
13:51:14,0.331832,89.03,34.79,3-4
13:51:15,0.334392,88.53,34.81,3-4
13:51:15,0.356155,88.53,34.81,3-4
13:51:15,0.359996,88.53,34.81,3-4
13:51:15,0.345914,88.53,34.81,3-4
13:51:16,0.33311199999999996,87.98,34.83,3-4
13:51:16,0.327991,87.98,34.83,3-4
13:51:16,0.32159099999999996,87.98,34.83,3-4
13:51:16,0.31775,87.98,34.83,3-4
13:51:17,0.30750900000000003,87.43,34.79,3-4
13:51:17,0.306228,87.43,34.79,3-4
13:51:17,0.30750900000000003,87.43,34.79,3-4
13:51:17,0.304948,87.43,34.79,3-4
13:51:18,0.304948,86.92,34.79,3-4
13:51:18,0.306228,86.92,34.79,3-4
13:51:18,0.303668,86.92,34.79,3-4
13:51:18,0.308789,86.92,34.79,3-4
13:51:19,0.308789,86.42,34.81,3-4
13:51:19,0.30750900000000003,86.42,34.81,3-4
13:51:19,0.308789,86.42,34.81,3-4
13:51:19,0.30750900000000003,86.42,34.81,3-4
13:51:20,0.30750900000000003,85.85,34.79,3-4
13:51:20,0.310069,85.85,34.79,3-4
13:51:20,0.308789,85.85,34.79,3-4
13:51:20,0.308789,85.85,34.79,3-4
13:51:21,0.308789,85.32,34.77,3-4
13:51:21,0.306228,85.32,34.77,3-4
13:51:21,0.30750900000000003,85.32,34.77,3-4
13:51:21,0.306228,85.32,34.77,3-4
13:51:22,0.306228,84.78,34.83,3-4
13:51:22,0.303668,84.78,34.83,3-4
13:51:22,0.302388,84.78,34.83,3-4
13:51:22,0.29982800000000004,84.78,34.83,3-4
13:51:23,0.297267,84.23,34.81,3-4
13:51:23,0.29982800000000004,84.23,34.81,3-4
13:51:23,0.297267,84.23,34.81,3-4
13:51:23,0.297267,84.23,34.81,3-4
13:51:24,0.295987,83.67,34.79,3-4
13:51:24,0.295987,83.67,34.79,3-4
13:51:24,0.295987,83.67,34.79,3-4
13:51:24,0.295987,83.67,34.79,3-4
13:51:25,0.293427,83.12,34.81,3-4
13:51:25,0.293427,83.12,34.81,3-4
13:51:25,0.293427,83.12,34.81,3-4
13:51:25,0.292147,83.12,34.81,3-4
13:51:26,0.292147,82.52,34.81,3-4
13:51:26,0.29086599999999996,82.52,34.81,3-4
13:51:26,0.29086599999999996,82.52,34.81,3-4
13:51:26,0.288306,82.52,34.81,3-4
13:51:27,0.289586,81.9,34.79,3-4
13:51:27,0.288306,81.9,34.79,3-4
13:51:27,0.287026,81.9,34.79,3-4
13:51:27,0.289586,81.9,34.79,3-4
13:51:28,0.287026,81.28,34.79,3-4
13:51:28,0.287026,81.28,34.79,3-4
13:51:28,0.284465,81.28,34.79,3-4
13:51:28,0.284465,81.28,34.79,3-4
13:51:29,0.285746,80.68,34.81,3-4
13:51:29,0.284465,80.68,34.81,3-4
13:51:29,0.284465,80.68,34.81,3-4
13:51:29,0.284465,80.68,34.81,3-4
13:51:30,0.284465,79.97,34.81,3-4
13:51:30,0.28318499999999996,79.97,34.81,3-4
13:51:30,0.28318499999999996,79.97,34.81,3-4
13:51:30,0.284465,79.97,34.81,3-4
13:51:31,0.28318499999999996,79.22,34.81,3-4
13:51:31,0.280625,79.22,34.81,3-4
13:51:31,0.280625,79.22,34.81,3-4
13:51:31,0.278065,79.22,34.81,3-4
13:51:32,0.27934499999999995,78.4,34.81,3-4
13:51:32,0.27934499999999995,78.4,34.81,3-4
13:51:32,0.280625,78.4,34.81,3-4
13:51:32,0.280625,78.4,34.81,3-4
13:51:33,0.278065,77.53,34.81,3-4
13:51:33,0.278065,77.53,34.81,3-4
13:51:33,0.278065,77.53,34.81,3-4
13:51:33,0.27550399999999997,77.53,34.81,3-4
13:51:34,0.27550399999999997,76.7,34.81,3-4
13:51:34,0.27422399999999997,76.7,34.81,3-4
13:51:34,0.27422399999999997,76.7,34.81,3-4
13:51:34,0.272944,76.7,34.81,3-4
13:51:35,0.272944,75.87,34.81,3-4
13:51:35,0.27422399999999997,75.87,34.81,3-4
13:51:35,0.272944,75.87,34.81,3-4
13:51:35,0.272944,75.87,34.81,3-4
13:51:36,0.272944,75.0,34.81,3-4
13:51:36,0.27166399999999996,75.0,34.81,3-4
13:51:36,0.27166399999999996,75.0,34.81,3-4
13:51:36,0.266543,75.0,34.81,3-4
13:51:37,0.267823,74.17,34.81,3-4
13:51:37,0.265263,74.17,34.81,3-4
13:51:37,0.266543,74.17,34.81,3-4
13:51:37,0.266543,74.17,34.81,3-4
13:51:38,0.267823,73.38,34.79,3-4
13:51:38,0.266543,73.38,34.79,3-4
13:51:38,0.267823,73.38,34.79,3-4
13:51:38,0.266543,73.38,34.79,3-4
13:51:39,0.265263,72.62,34.81,3-4
13:51:39,0.266543,72.62,34.81,3-4
13:51:39,0.262702,72.62,34.81,3-4
13:51:39,0.261422,72.62,34.81,3-4
13:51:40,0.260142,71.77,34.77,3-4
13:51:40,0.261422,71.77,34.77,3-4
13:51:40,0.260142,71.77,34.77,3-4
13:51:40,0.261422,71.77,34.77,3-4
13:51:41,0.260142,70.93,34.81,3-4
13:51:41,0.260142,70.93,34.81,3-4
13:51:41,0.261422,70.93,34.81,3-4
13:51:41,0.261422,70.93,34.81,3-4
13:51:42,0.260142,70.15,34.79,3-4
13:51:42,0.258862,70.15,34.79,3-4
13:51:42,0.255021,70.15,34.79,3-4
13:51:42,0.256302,70.15,34.79,3-4
13:51:43,0.256302,69.35,34.79,3-4
13:51:43,0.255021,69.35,34.79,3-4
13:51:43,0.25758200000000003,69.35,34.79,3-4
13:51:43,0.256302,69.35,34.79,3-4
13:51:44,0.256302,68.55,34.79,3-4
13:51:44,0.253741,68.55,34.79,3-4
13:51:44,0.252461,68.55,34.79,3-4
13:51:44,0.255021,68.55,34.79,3-4
13:51:45,0.253741,67.72,34.79,3-4
13:51:45,0.251181,67.72,34.79,3-4
13:51:45,0.249901,67.72,34.79,3-4
13:51:45,0.252461,67.72,34.79,3-4
13:51:46,0.249901,66.9,34.81,3-4
13:51:46,0.251181,66.9,34.81,3-4
13:51:46,0.251181,66.9,34.81,3-4
13:51:46,0.251181,66.9,34.81,3-4
13:51:47,0.249901,66.1,34.81,3-4
13:51:47,0.248621,66.1,34.81,3-4
13:51:47,0.248621,66.1,34.81,3-4
13:51:47,0.249901,66.1,34.81,3-4
13:51:48,0.24734,65.33,34.81,3-4
13:51:48,0.24478000000000003,65.33,34.81,3-4
13:51:48,0.2435,65.33,34.81,3-4
13:51:48,0.2435,65.33,34.81,3-4
13:51:49,0.24478000000000003,64.73,34.81,3-4
13:51:49,0.24734,64.73,34.81,3-4
13:51:49,0.248621,64.73,34.81,3-4
13:51:49,0.253741,64.73,34.81,3-4
13:51:50,0.256302,64.12,34.81,3-4
13:51:50,0.256302,64.12,34.81,3-4
13:51:50,0.258862,64.12,34.81,3-4
13:51:50,0.252461,64.12,34.81,3-4
13:51:51,0.253741,63.57,34.81,3-4
13:51:51,0.252461,63.57,34.81,3-4
13:51:51,0.252461,63.57,34.81,3-4
13:51:51,0.252461,63.57,34.81,3-4
13:51:52,0.248621,63.05,34.79,3-4
13:51:52,0.249901,63.05,34.79,3-4
13:51:52,0.251181,63.05,34.79,3-4
13:51:52,0.249901,63.05,34.79,3-4
13:51:53,0.24734,62.55,34.79,3-4
13:51:53,0.249901,62.55,34.79,3-4
13:51:53,0.24606,62.55,34.79,3-4
13:51:53,0.24478000000000003,62.55,34.79,3-4
13:51:54,0.24478000000000003,62.12,34.81,3-4
13:51:54,0.2435,62.12,34.81,3-4
13:51:54,0.2435,62.12,34.81,3-4
13:51:54,0.24222,62.12,34.81,3-4
13:51:55,0.2435,61.65,34.79,3-4
13:51:55,0.2435,61.65,34.79,3-4
13:51:55,0.24478000000000003,61.65,34.79,3-4
13:51:55,0.24478000000000003,61.65,34.79,3-4
13:51:56,0.24478000000000003,61.13,34.79,3-4
13:51:56,0.24094000000000002,61.13,34.79,3-4
13:51:56,0.239659,61.13,34.79,3-4
13:51:56,0.24094000000000002,61.13,34.79,3-4
13:51:57,0.24094000000000002,60.72,34.81,3-4
13:51:57,0.24222,60.72,34.81,3-4
13:51:57,0.238379,60.72,34.81,3-4
13:51:57,0.24094000000000002,60.72,34.81,3-4
13:51:58,0.24222,60.38,34.77,3-4
13:51:58,0.239659,60.38,34.77,3-4
13:51:58,0.239659,60.38,34.77,3-4
13:51:58,0.239659,60.38,34.77,3-4
13:51:59,0.238379,60.08,34.79,3-4
13:51:59,0.23709899999999998,60.08,34.79,3-4
13:51:59,0.238379,60.08,34.79,3-4
13:51:59,0.238379,60.08,34.79,3-4
13:52:00,0.23709899999999998,59.82,34.79,3-4
13:52:00,0.239659,59.82,34.79,3-4
13:52:00,0.239659,59.82,34.79,3-4
13:52:00,0.23709899999999998,59.82,34.79,3-4
13:52:01,0.23709899999999998,60.0,34.79,3-4
13:52:01,0.23709899999999998,60.0,34.79,3-4
13:52:01,0.239659,60.0,34.79,3-4
13:52:01,0.23709899999999998,60.0,34.79,3-4
13:52:02,0.234539,60.15,34.79,3-4
13:52:02,0.234539,60.15,34.79,3-4
13:52:02,0.233258,60.15,34.79,3-4
13:52:02,0.234539,60.15,34.79,3-4
13:52:03,0.234539,60.32,34.79,3-4
13:52:03,0.235819,60.32,34.79,3-4
13:52:03,0.234539,60.32,34.79,3-4
13:52:03,0.23197800000000002,60.32,34.79,3-4
13:52:04,0.235819,60.42,34.79,3-4
13:52:04,0.233258,60.42,34.79,3-4
13:52:04,0.233258,60.42,34.79,3-4
13:52:04,0.23197800000000002,60.42,34.79,3-4
13:52:05,0.23069800000000001,60.52,34.79,3-4
13:52:05,0.23069800000000001,60.52,34.79,3-4
13:52:05,0.22941799999999998,60.52,34.79,3-4
13:52:05,0.23197800000000002,60.52,34.79,3-4
13:52:06,0.23197800000000002,60.57,34.79,3-4
13:52:06,0.23069800000000001,60.57,34.79,3-4
13:52:06,0.23069800000000001,60.57,34.79,3-4
13:52:06,0.23069800000000001,60.57,34.79,3-4
13:52:07,0.22941799999999998,61.05,34.79,3-4
13:52:07,0.22941799999999998,61.05,34.79,3-4
13:52:07,0.226858,61.05,34.79,3-4
13:52:07,0.228138,61.05,34.79,3-4
13:52:08,0.228138,61.55,34.79,3-4
13:52:08,0.225577,61.55,34.79,3-4
13:52:08,0.228138,61.55,34.79,3-4
13:52:08,0.22429699999999997,61.55,34.79,3-4
13:52:09,0.226858,62.0,34.79,3-4
13:52:09,0.228138,62.0,34.79,3-4
13:52:09,0.228138,62.0,34.79,3-4
13:52:09,0.226858,62.0,34.79,3-4
13:52:10,0.228138,62.42,34.77,3-4
13:52:10,0.226858,62.42,34.77,3-4
13:52:10,0.225577,62.42,34.77,3-4
13:52:10,0.226858,62.42,34.77,3-4
13:52:11,0.225577,62.9,34.79,3-4
13:52:11,0.228138,62.9,34.79,3-4
13:52:11,0.22941799999999998,62.9,34.79,3-4
13:52:11,0.23069800000000001,62.9,34.79,3-4
13:52:12,0.23069800000000001,63.37,34.77,3-4
13:52:12,0.23069800000000001,63.37,34.77,3-4
13:52:12,0.23197800000000002,63.37,34.77,3-4
13:52:12,0.22941799999999998,63.37,34.77,3-4
13:52:13,0.228138,63.92,34.77,3-4
13:52:13,0.226858,63.92,34.77,3-4
13:52:13,0.228138,63.92,34.77,3-4
13:52:13,0.228138,63.92,34.77,3-4
13:52:14,0.226858,64.33,34.77,3-4
13:52:14,0.226858,64.33,34.77,3-4
13:52:14,0.228138,64.33,34.77,3-4
13:52:14,0.226858,64.33,34.77,3-4
13:52:15,0.22941799999999998,64.75,34.79,3-4
13:52:15,0.228138,64.75,34.79,3-4
13:52:15,0.23709899999999998,64.75,34.79,3-4
13:52:15,0.24094000000000002,64.75,34.79,3-4
13:52:16,0.2435,65.17,34.79,3-4
13:52:16,0.258862,65.17,34.79,3-4
13:52:16,0.272944,65.17,34.79,3-4
13:52:16,0.255021,65.17,34.79,3-4
13:52:17,0.287026,65.52,34.75,3-4
13:52:17,0.304948,65.52,34.75,3-4
13:52:17,0.301108,65.52,34.75,3-4
13:52:17,0.30750900000000003,65.52,34.75,3-4
13:52:18,0.297267,65.85,34.79,3-4
13:52:18,0.297267,65.85,34.79,3-4
13:52:18,0.288306,65.85,34.79,3-4
13:52:18,0.24094000000000002,65.85,34.79,3-4
13:52:19,0.226858,66.03,34.73,3-4
13:52:19,0.23197800000000002,66.03,34.73,3-4
13:52:19,0.234539,66.03,34.73,3-4
13:52:19,0.262702,66.03,34.73,3-4
13:52:20,0.26398299999999997,66.27,34.75,3-4
13:52:20,0.233258,66.27,34.75,3-4
13:52:20,0.260142,66.27,34.75,3-4
13:52:20,0.270384,66.27,34.75,3-4
13:52:21,0.27678400000000003,66.5,34.75,3-4
13:52:21,0.28318499999999996,66.5,34.75,3-4
13:52:21,0.292147,66.5,34.75,3-4
13:52:21,0.293427,66.5,34.75,3-4
13:52:22,0.293427,66.67,34.75,3-4
13:52:22,0.293427,66.67,34.75,3-4
13:52:22,0.298547,66.67,34.75,3-4
13:52:22,0.313909,66.67,34.75,3-4
13:52:23,0.31775,66.85,34.77,3-4
13:52:23,0.31775,66.85,34.77,3-4
13:52:23,0.32031,66.85,34.77,3-4
13:52:23,0.32159099999999996,66.85,34.77,3-4
13:52:24,0.32543099999999997,66.98,34.77,3-4
13:52:24,0.32927199999999995,66.98,34.77,3-4
13:52:24,0.32543099999999997,66.98,34.77,3-4
13:52:24,0.327991,66.98,34.77,3-4
13:52:25,0.32927199999999995,67.12,34.77,3-4
13:52:25,0.331832,67.12,34.77,3-4
13:52:25,0.330552,67.12,34.77,3-4
13:52:25,0.331832,67.12,34.77,3-4
13:52:26,0.33311199999999996,67.28,34.77,3-4
13:52:26,0.33567199999999997,67.28,34.77,3-4
13:52:26,0.33567199999999997,67.28,34.77,3-4
13:52:26,0.33567199999999997,67.28,34.77,3-4
13:52:27,0.338233,67.43,34.77,3-4
13:52:27,0.339513,67.43,34.77,3-4
13:52:27,0.336953,67.43,34.77,3-4
13:52:27,0.339513,67.43,34.77,3-4
13:52:28,0.338233,67.57,34.79,3-4
13:52:28,0.339513,67.57,34.79,3-4
13:52:28,0.342073,67.57,34.79,3-4
13:52:28,0.344634,67.57,34.79,3-4
13:52:29,0.342073,67.57,34.77,3-4
13:52:29,0.345914,67.57,34.77,3-4
13:52:29,0.343354,67.57,34.77,3-4
13:52:29,0.344634,67.57,34.77,3-4
13:52:30,0.344634,67.78,34.79,3-4
13:52:30,0.344634,67.78,34.79,3-4
13:52:30,0.344634,67.78,34.79,3-4
13:52:30,0.347194,67.78,34.79,3-4
13:52:31,0.34847399999999995,67.97,34.81,3-4
13:52:31,0.351035,67.97,34.81,3-4
13:52:31,0.34847399999999995,67.97,34.81,3-4
13:52:31,0.34847399999999995,67.97,34.81,3-4
13:52:32,0.351035,68.17,34.81,3-4
13:52:32,0.352315,68.17,34.81,3-4
