TIME,EDA,HR,TEMP
14:56:14,10.327134,58.0,34.03
14:56:14,10.325853,58.0,34.03
14:56:14,10.324574,58.0,34.03
14:56:14,10.332253,58.0,34.03
14:56:15,10.357854,58.5,34.0
14:56:15,10.392415,58.5,34.0
14:56:15,10.392415,58.5,34.0
14:56:15,10.426975,58.5,34.0
14:56:16,10.452575999999999,66.67,34.0
14:56:16,10.481977,66.67,34.0
14:56:16,10.437178,66.67,34.0
14:56:16,10.391096000000001,66.67,34.0
14:56:17,10.389816,64.75,33.99
14:56:17,10.382136000000001,64.75,33.99
14:56:17,10.371896000000001,64.75,33.99
14:56:17,10.360375999999999,64.75,33.99
14:56:18,10.350136000000001,66.4,33.97
14:56:18,10.346295,66.4,33.97
14:56:18,10.339895,66.4,33.97
14:56:18,10.329656,66.4,33.97
14:56:19,10.321976,65.0,33.99
14:56:19,10.313015,65.0,33.99
14:56:19,10.313015,65.0,33.99
14:56:19,10.334776,65.0,33.99
14:56:20,10.411577000000001,64.14,33.99
14:56:20,10.511417999999999,64.14,33.99
14:56:20,10.60998,64.14,33.99
14:56:20,10.721342,64.14,33.99
14:56:21,10.823744,63.62,33.99
14:56:21,10.895425,63.62,33.99
14:56:21,10.927425,63.62,33.99
14:56:21,10.932546,63.62,33.99
14:56:22,10.903105,63.78,33.99
14:56:22,10.864704,63.78,33.99
14:56:22,10.808383000000001,63.78,33.99
14:56:22,10.753343,63.78,33.99
14:56:23,10.708542,63.5,33.97
14:56:23,10.699581,63.5,33.97
14:56:23,10.749502,63.5,33.97
14:56:23,10.836544,63.5,33.97
14:56:24,10.936385000000001,63.09,33.99
14:56:24,11.006786,63.09,33.99
14:56:24,11.095668,63.09,33.99
14:56:24,11.116147999999999,63.09,33.99
14:56:25,11.091828,62.75,33.99
14:56:25,11.044467,62.75,33.99
14:56:25,10.990706,62.75,33.99
14:56:25,10.926705,62.75,33.99
14:56:26,10.871663999999999,62.46,33.97
14:56:26,10.816624000000001,62.46,33.97
14:56:26,10.760303,62.46,33.97
14:56:26,10.788463,62.46,33.97
14:56:27,10.730862,62.07,33.97
14:56:27,10.692461999999999,62.07,33.97
14:56:27,10.695022,62.07,33.97
14:56:27,10.673262,62.07,33.97
14:56:28,10.6259,61.2,33.97
14:56:28,10.6131,61.2,33.97
14:56:28,10.59774,61.2,33.97
14:56:28,10.591339999999999,61.2,33.97
14:56:29,10.582379,60.62,33.97
14:56:29,10.56574,60.62,33.97
14:56:29,10.550379,60.62,33.97
14:56:29,10.533739,60.62,33.97
14:56:30,10.520939,60.18,33.99
14:56:30,10.508139,60.18,33.99
14:56:30,10.497898,60.18,33.99
14:56:30,10.479978,60.18,33.99
14:56:31,10.471017999999999,59.89,33.97
14:56:31,10.460777,59.89,33.97
14:56:31,10.449977,59.89,33.97
14:56:31,10.444858,59.89,33.97
14:56:32,10.455097,59.58,33.97
14:56:32,10.490938,59.58,33.97
14:56:32,10.535739,59.58,33.97
14:56:32,10.571579,59.58,33.97
14:56:33,10.59334,59.35,33.95
14:56:33,10.597178999999999,59.35,33.95
14:56:33,10.58822,59.35,33.95
14:56:33,10.575419,59.35,33.95
14:56:34,10.549819,59.14,33.97
14:56:34,10.528058999999999,59.14,33.97
14:56:34,10.497338000000001,59.14,33.97
14:56:34,10.489658,59.14,33.97
14:56:35,10.496058,59.18,33.95
14:56:35,10.489658,59.18,33.95
14:56:35,10.492218,59.18,33.95
14:56:35,10.488377999999999,59.18,33.95
14:56:36,10.479417999999999,59.17,33.97
14:56:36,10.465338000000001,59.17,33.97
14:56:36,10.456377,59.17,33.97
14:56:36,10.451258000000001,59.17,33.97
14:56:37,10.439737,60.5,33.97
14:56:37,10.435897,60.5,33.97
14:56:37,10.420537,60.5,33.97
14:56:37,10.417977,60.5,33.97
14:56:38,10.407737,61.48,33.97
14:56:38,10.401337,61.48,33.97
14:56:38,10.391096000000001,61.48,33.97
14:56:38,10.387257,61.48,33.97
14:56:39,10.379577000000001,62.81,33.97
14:56:39,10.374456,62.81,33.97
14:56:39,10.369336,62.81,33.97
14:56:39,10.368056,62.81,33.97
14:56:40,10.361656,64.19,33.99
14:56:40,10.355255999999999,64.19,33.99
14:56:40,10.355255999999999,64.19,33.99
14:56:40,10.346295,64.19,33.99
14:56:41,10.350136000000001,65.46,33.99
14:56:41,10.374456,65.46,33.99
14:56:41,10.407737,65.46,33.99
14:56:41,10.437178,65.46,33.99
14:56:42,10.455097,66.69,33.99
14:56:42,10.462777,66.69,33.99
14:56:42,10.461497,66.69,33.99
14:56:42,10.444858,66.69,33.99
14:56:43,10.432057,67.87,33.97
14:56:43,10.414137,67.87,33.97
14:56:43,10.398777,67.87,33.97
14:56:43,10.387257,67.87,33.97
14:56:44,10.377016000000001,69.0,33.97
14:56:44,10.374456,69.0,33.97
14:56:44,10.373177,69.0,33.97
14:56:44,10.360375999999999,69.0,33.97
14:56:45,10.353976,70.09,33.97
14:56:45,10.345016000000001,70.09,33.97
14:56:45,10.333495,70.09,33.97
14:56:45,10.342456,70.09,33.97
14:56:46,10.362936,71.12,33.99
14:56:46,10.409017,71.12,33.99
14:56:46,10.466617999999999,71.12,33.99
14:56:46,10.519098,71.12,33.99
14:56:47,10.556219,72.12,33.97
14:56:47,10.575419,72.12,33.97
14:56:47,10.575419,72.12,33.97
14:56:47,10.561339,72.12,33.97
14:56:48,10.539578,73.06,33.97
14:56:48,10.520378,73.06,33.97
14:56:48,10.498617999999999,73.06,33.97
14:56:48,10.480698,73.06,33.97
14:56:49,10.458938,73.94,33.97
14:56:49,10.455097,73.94,33.97
14:56:49,10.434617,73.94,33.97
14:56:49,10.424377,73.94,33.97
14:56:50,10.412857,74.78,33.97
14:56:50,10.406457000000001,74.78,33.97
14:56:50,10.397496,74.78,33.97
14:56:50,10.387257,74.78,33.97
14:56:51,10.378296,75.58,33.99
14:56:51,10.380857,75.58,33.99
14:56:51,10.379577000000001,75.58,33.99
14:56:51,10.389816,75.58,33.99
14:56:52,10.401337,76.33,33.99
14:56:52,10.406457000000001,76.33,33.99
14:56:52,10.409017,76.33,33.99
14:56:52,10.397496,76.33,33.99
14:56:53,10.396216,77.05,33.99
14:56:53,10.384696,77.05,33.99
14:56:53,10.380857,77.05,33.99
14:56:53,10.364216,77.05,33.99
14:56:54,10.351416,77.71,33.97
14:56:54,10.338614999999999,77.71,33.97
14:56:54,10.325814999999999,77.71,33.97
14:56:54,10.329656,77.71,33.97
14:56:55,10.318135,78.31,33.99
14:56:55,10.316855,78.31,33.99
14:56:55,10.310455000000001,78.31,33.99
14:56:55,10.306614999999999,78.31,33.99
14:56:56,10.293814999999999,78.86,33.99
14:56:56,10.298935,78.86,33.99
14:56:56,10.284855,78.86,33.99
14:56:56,10.273335000000001,78.86,33.99
14:56:57,10.269494,79.39,33.99
14:56:57,10.260534,79.39,33.99
14:56:57,10.251575,79.39,33.99
14:56:57,10.241334,79.39,33.99
14:56:58,10.223413,79.89,33.99
14:56:58,10.227253999999999,79.89,33.99
14:56:58,10.220854,79.89,33.99
14:56:58,10.260534,79.89,33.99
14:56:59,10.273335000000001,80.35,33.99
14:56:59,10.315576,80.35,33.99
14:56:59,10.371896000000001,80.35,33.99
14:56:59,10.432057,80.35,33.99
14:57:00,10.461497,80.83,33.97
14:57:00,10.476858,80.83,33.97
14:57:00,10.479417999999999,80.83,33.97
14:57:00,10.473018,80.83,33.97
14:57:01,10.458938,81.29,33.99
14:57:01,10.441017,81.29,33.99
14:57:01,10.438457000000001,81.29,33.99
14:57:01,10.449977,81.29,33.99
14:57:02,10.465338000000001,81.76,33.99
14:57:02,10.474298,81.76,33.99
14:57:02,10.481977,81.76,33.99
14:57:02,10.475577000000001,81.76,33.99
14:57:03,10.467897,82.22,33.97
14:57:03,10.447417,82.22,33.97
14:57:03,10.430778,82.22,33.97
14:57:03,10.438457000000001,82.22,33.97
14:57:04,10.473018,82.67,34.0
14:57:04,10.517818,82.67,34.0
14:57:04,10.57414,82.67,34.0
14:57:04,10.59334,82.67,34.0
14:57:05,10.60486,83.12,33.99
14:57:05,10.60486,83.12,33.99
14:57:05,10.58694,83.12,33.99
14:57:05,10.569019,83.12,33.99
14:57:06,10.551099,83.58,34.0
14:57:06,10.534459,83.58,34.0
14:57:06,10.510139,83.58,34.0
14:57:06,10.501178,83.58,34.0
14:57:07,10.488377999999999,84.06,34.0
14:57:07,10.478138000000001,84.06,34.0
14:57:07,10.473018,84.06,34.0
14:57:07,10.461497,84.06,34.0
14:57:08,10.469177,84.53,34.0
14:57:08,10.455097,84.53,34.0
14:57:08,10.447417,84.53,34.0
14:57:08,10.446137,84.53,34.0
14:57:09,10.439737,84.98,34.0
14:57:09,10.429497,84.98,34.0
14:57:09,10.425657000000001,84.98,34.0
14:57:09,10.421816999999999,84.98,34.0
14:57:10,10.415417,85.42,33.99
14:57:10,10.435897,85.42,33.99
14:57:10,10.476858,85.42,33.99
14:57:10,10.531898,85.42,33.99
14:57:11,10.590779,85.84,34.0
14:57:11,10.635580000000001,85.84,34.0
14:57:11,10.681662,85.84,34.0
14:57:11,10.714942,85.84,34.0
14:57:12,10.735422,86.24,33.99
14:57:12,10.757182,86.24,33.99
14:57:12,10.743102,86.24,33.99
14:57:12,10.722622,86.24,33.99
14:57:13,10.703422,86.6,34.0
14:57:13,10.684221,86.6,34.0
14:57:13,10.662461,86.6,34.0
14:57:13,10.639421,86.6,34.0
14:57:14,10.62278,87.42,34.0
14:57:14,10.60486,87.42,34.0
14:57:14,10.58182,87.42,34.0
14:57:14,10.558779,87.42,34.0
14:57:15,10.549819,88.22,33.99
14:57:15,10.543419,88.22,33.99
14:57:15,10.543419,88.22,33.99
14:57:15,10.630461,88.22,33.99
14:57:16,10.771262,88.62,34.0
14:57:16,10.854464,88.62,34.0
14:57:16,10.915905,88.62,34.0
14:57:16,10.917185,88.62,34.0
14:57:17,10.905664,89.4,33.99
14:57:17,10.878784,89.4,33.99
14:57:17,10.832704,89.4,33.99
14:57:17,10.795583,89.4,33.99
14:57:18,10.744382,89.98,34.0
14:57:18,10.708542,89.98,34.0
14:57:18,10.700861999999999,89.98,34.0
14:57:18,10.663741,89.98,34.0
14:57:19,10.662461,90.8,34.0
14:57:19,10.681662,90.8,34.0
14:57:19,10.672701,90.8,34.0
14:57:19,10.668861,90.8,34.0
14:57:20,10.668861,91.62,34.0
14:57:20,10.675261,91.62,34.0
14:57:20,10.672701,91.62,34.0
14:57:20,10.679101,91.62,34.0
14:57:21,10.680381,92.43,33.99
14:57:21,10.673981,92.43,33.99
14:57:21,10.66118,92.43,33.99
14:57:21,10.650941,92.43,33.99
14:57:22,10.6407,93.17,33.99
14:57:22,10.624061,93.17,33.99
14:57:22,10.6215,93.17,33.99
14:57:22,10.624061,93.17,33.99
14:57:23,10.649661,93.95,33.99
14:57:23,10.681662,93.95,33.99
14:57:23,10.712381,93.95,33.99
14:57:23,10.732861999999999,93.95,33.99
14:57:24,10.744382,94.75,34.0
14:57:24,10.746943,94.75,34.0
14:57:24,10.759742999999999,94.75,34.0
14:57:24,10.745662,94.75,34.0
14:57:25,10.729022,95.53,34.0
14:57:25,10.709822,95.53,34.0
14:57:25,10.686781,95.53,34.0
14:57:25,10.676541,95.53,34.0
14:57:26,10.689342,96.35,33.99
14:57:26,10.662461,96.35,33.99
14:57:26,10.66118,96.35,33.99
14:57:26,10.636861,96.35,33.99
14:57:27,10.624061,97.18,33.99
14:57:27,10.6087,97.18,33.99
14:57:27,10.60614,97.18,33.99
14:57:27,10.6023,97.18,33.99
14:57:28,10.61382,98.13,33.99
14:57:28,10.599739999999999,98.13,33.99
14:57:28,10.58566,98.13,33.99
14:57:28,10.566460000000001,98.13,33.99
14:57:29,10.558779,99.02,34.0
14:57:29,10.558779,99.02,34.0
14:57:29,10.544699000000001,99.02,34.0
14:57:29,10.520378,99.02,34.0
14:57:30,10.533178,99.87,34.0
14:57:30,10.539578,99.87,34.0
14:57:30,10.563899000000001,99.87,34.0
14:57:30,10.611260000000001,99.87,34.0
14:57:31,10.6471,100.68,34.0
14:57:31,10.663741,100.68,34.0
14:57:31,10.677821,100.68,34.0
14:57:31,10.711102,100.68,34.0
14:57:32,10.773823,101.5,34.0
14:57:32,10.872384,101.5,34.0
14:57:32,10.958146000000001,101.5,34.0
14:57:32,11.059828,101.5,34.0
14:57:33,11.087988000000001,102.32,33.99
14:57:33,11.079028,102.32,33.99
14:57:33,11.052147,102.32,33.99
14:57:33,11.011187,102.32,33.99
14:57:34,10.974066,103.15,34.0
14:57:34,10.935665,103.15,34.0
14:57:34,10.906225,103.15,34.0
14:57:34,10.885745,103.15,34.0
14:57:35,10.875504,103.9,34.0
14:57:35,10.860145,103.9,34.0
14:57:35,10.852464,103.9,34.0
14:57:35,10.825583,103.9,34.0
14:57:36,10.819183,104.68,33.99
14:57:36,10.820463,104.68,33.99
14:57:36,10.825583,104.68,33.99
14:57:36,10.821744,104.68,33.99
14:57:37,10.823024,104.83,34.0
14:57:37,10.815344,104.83,34.0
14:57:37,10.808944,104.83,34.0
14:57:37,10.799983000000001,104.83,34.0
14:57:38,10.787183,105.08,34.0
14:57:38,10.787183,105.08,34.0
14:57:38,10.778222999999999,105.08,34.0
14:57:38,10.775661999999999,105.08,34.0
14:57:39,10.764142999999999,105.15,34.0
14:57:39,10.765423,105.15,34.0
14:57:39,10.757743,105.15,34.0
14:57:39,10.753902,105.15,34.0
14:57:40,10.755182000000001,105.15,34.0
14:57:40,10.776943,105.15,34.0
14:57:40,10.780783,105.15,34.0
14:57:40,10.778222999999999,105.15,34.0
14:57:41,10.780783,105.15,33.99
14:57:41,10.771823,105.15,33.99
14:57:41,10.775661999999999,105.15,33.99
14:57:41,10.767982,105.15,33.99
14:57:42,10.770543,105.12,34.0
14:57:42,10.767982,105.12,34.0
14:57:42,10.761582,105.12,34.0
14:57:42,10.756461999999999,105.12,34.0
14:57:43,10.752623,105.07,34.0
14:57:43,10.757743,105.07,34.0
14:57:43,10.743661999999999,105.07,34.0
14:57:43,10.734702,105.07,34.0
14:57:44,10.729582,105.0,34.0
14:57:44,10.725742,105.0,34.0
14:57:44,10.733422000000001,105.0,34.0
14:57:44,10.721902,105.0,34.0
14:57:45,10.714222,104.92,34.0
14:57:45,10.711661999999999,104.92,34.0
14:57:45,10.710382000000001,104.92,34.0
14:57:45,10.702702,104.92,34.0
14:57:46,10.705262,104.83,34.0
14:57:46,10.698862,104.83,34.0
14:57:46,10.695022,104.83,34.0
14:57:46,10.695022,104.83,34.0
14:57:47,10.693742,104.73,33.99
14:57:47,10.700142,104.73,33.99
14:57:47,10.710382000000001,104.73,33.99
14:57:47,10.715502,104.73,33.99
14:57:48,10.714222,104.62,33.99
14:57:48,10.718062,104.62,33.99
14:57:48,10.709102,104.62,33.99
14:57:48,10.706542,104.62,33.99
14:57:49,10.700142,104.5,34.03
14:57:49,10.692461999999999,104.5,34.03
14:57:49,10.682221,104.5,34.03
14:57:49,10.686062,104.5,34.03
14:57:50,10.677100999999999,104.37,34.0
14:57:50,10.683501,104.37,34.0
14:57:50,10.680942,104.37,34.0
14:57:50,10.675821000000001,104.37,34.0
14:57:51,10.669421,104.23,34.03
14:57:51,10.656621000000001,104.23,34.03
14:57:51,10.660461,104.23,34.03
14:57:51,10.660461,104.23,34.03
14:57:52,10.663021,104.1,34.0
14:57:52,10.651501,104.1,34.0
14:57:52,10.64638,104.1,34.0
14:57:52,10.6387,104.1,34.0
14:57:53,10.6387,103.97,34.03
14:57:53,10.634861,103.97,34.03
14:57:53,10.629741000000001,103.97,34.03
14:57:53,10.627180000000001,103.97,34.03
14:57:54,10.622061,103.85,34.03
14:57:54,10.615661,103.85,34.03
14:57:54,10.61694,103.85,34.03
14:57:54,10.6131,103.85,34.03
14:57:55,10.61054,103.75,34.0
14:57:55,10.6003,103.75,34.0
14:57:55,10.595180000000001,103.75,34.0
14:57:55,10.590060000000001,103.75,34.0
14:57:56,10.5875,103.67,34.05
14:57:56,10.5811,103.67,34.05
14:57:56,10.57726,103.67,34.05
14:57:56,10.57342,103.67,34.05
14:57:57,10.574699,103.58,34.0
14:57:57,10.590060000000001,103.58,34.0
14:57:57,10.63358,103.58,34.0
14:57:57,10.678381,103.58,34.0
14:57:58,10.710382000000001,103.5,34.03
14:57:58,10.735982,103.5,34.03
14:57:58,10.739822,103.5,34.03
14:57:58,10.728302000000001,103.5,34.03
14:57:59,10.728302000000001,103.43,34.0
14:57:59,10.710382000000001,103.43,34.0
14:57:59,10.687342,103.43,34.0
14:57:59,10.665581,103.43,34.0
14:58:00,10.652781,103.32,34.0
14:58:00,10.641261,103.32,34.0
14:58:00,10.628461,103.32,34.0
14:58:00,10.61694,103.32,34.0
14:58:01,10.61054,103.2,34.0
14:58:01,10.60286,103.2,34.0
14:58:01,10.5939,103.2,34.0
14:58:01,10.5875,103.2,34.0
14:58:02,10.586219999999999,103.07,34.03
14:58:02,10.591339999999999,103.07,34.03
14:58:02,10.582379,103.07,34.03
14:58:02,10.57086,103.07,34.03
14:58:03,10.57342,102.93,34.03
14:58:03,10.563179,102.93,34.03
14:58:03,10.561899,102.93,34.03
14:58:03,10.561899,102.93,34.03
14:58:04,10.549099,102.8,34.03
14:58:04,10.552939,102.8,34.03
14:58:04,10.563179,102.8,34.03
14:58:04,10.552939,102.8,34.03
14:58:05,10.545259,102.65,34.03
14:58:05,10.537579,102.65,34.03
14:58:05,10.527339,102.65,34.03
14:58:05,10.531178,102.65,34.03
14:58:06,10.519658999999999,102.47,34.05
14:58:06,10.520939,102.47,34.05
14:58:06,10.515819,102.47,34.05
14:58:06,10.508139,102.47,34.05
14:58:07,10.503017999999999,102.27,34.05
14:58:07,10.497898,102.27,34.05
14:58:07,10.495338,102.27,34.05
14:58:07,10.491498,102.27,34.05
14:58:08,10.488938000000001,102.07,34.05
14:58:08,10.481258,102.07,34.05
14:58:08,10.479978,102.07,34.05
14:58:08,10.474858,102.07,34.05
14:58:09,10.471017999999999,101.87,34.03
14:58:09,10.460777,101.87,34.03
14:58:09,10.466617999999999,101.87,34.03
14:58:09,10.461497,101.87,34.03
14:58:10,10.449977,101.65,34.0
14:58:10,10.452538,101.65,34.0
14:58:10,10.451258000000001,101.65,34.0
14:58:10,10.447417,101.65,34.0
14:58:11,10.447417,101.43,34.0
14:58:11,10.448697,101.43,34.0
14:58:11,10.455097,101.43,34.0
14:58:11,10.475577000000001,101.43,34.0
14:58:12,10.496058,101.23,34.03
14:58:12,10.520378,101.23,34.03
14:58:12,10.538299,101.23,34.03
14:58:12,10.545978999999999,101.23,34.03
14:58:13,10.543419,101.05,34.03
14:58:13,10.533178,101.05,34.03
14:58:13,10.525497999999999,101.05,34.03
14:58:13,10.507578,101.05,34.03
14:58:14,10.503738,100.88,34.0
14:58:14,10.484538,100.88,34.0
14:58:14,10.475577000000001,100.88,34.0
14:58:14,10.469177,100.88,34.0
14:58:15,10.469177,100.73,34.0
14:58:15,10.452538,100.73,34.0
14:58:15,10.451258000000001,100.73,34.0
14:58:15,10.444858,100.73,34.0
14:58:16,10.443578,100.58,34.03
14:58:16,10.437178,100.58,34.03
14:58:16,10.426936999999999,100.58,34.03
14:58:16,10.425657000000001,100.58,34.03
14:58:17,10.421816999999999,100.45,34.05
14:58:17,10.411577000000001,100.45,34.05
14:58:17,10.406457000000001,100.45,34.05
14:58:17,10.401337,100.45,34.05
14:58:18,10.397496,100.28,34.03
14:58:18,10.394936999999999,100.28,34.03
14:58:18,10.392377,100.28,34.03
14:58:18,10.388536,100.28,34.03
14:58:19,10.389816,100.15,34.03
14:58:19,10.388536,100.15,34.03
14:58:19,10.383416,100.15,34.03
14:58:19,10.380857,100.15,34.03
14:58:20,10.374456,100.0,34.05
14:58:20,10.365496,100.0,34.05
14:58:20,10.362936,100.0,34.05
14:58:20,10.357816,100.0,34.05
14:58:21,10.351416,99.83,34.03
14:58:21,10.345016000000001,99.83,34.03
14:58:21,10.339895,99.83,34.03
14:58:21,10.337336,99.83,34.03
14:58:22,10.332215,99.67,34.03
14:58:22,10.329656,99.67,34.03
14:58:22,10.328375999999999,99.67,34.03
14:58:22,10.321976,99.67,34.03
14:58:23,10.318135,99.52,34.03
14:58:23,10.310455000000001,99.52,34.03
14:58:23,10.307895,99.52,34.03
14:58:23,10.305335000000001,99.52,34.03
14:58:24,10.298935,99.38,34.03
14:58:24,10.295094,99.38,34.03
14:58:24,10.301495,99.38,34.03
14:58:24,10.292535,99.38,34.03
14:58:25,10.298935,99.28,34.03
14:58:25,10.289975,99.28,34.03
14:58:25,10.283575,99.28,34.03
14:58:25,10.281014,99.28,34.03
14:58:26,10.286135,99.17,34.03
14:58:26,10.300215,99.17,34.03
14:58:26,10.316855,99.17,34.03
14:58:26,10.328375999999999,99.17,34.03
14:58:27,10.332215,99.08,34.03
14:58:27,10.333495,99.08,34.03
14:58:27,10.333495,99.08,34.03
14:58:27,10.325814999999999,99.08,34.03
14:58:28,10.310455000000001,99.02,34.03
14:58:28,10.309175,99.02,34.03
14:58:28,10.301495,99.02,34.03
14:58:28,10.293814999999999,99.02,34.03
14:58:29,10.281014,98.98,34.03
14:58:29,10.278455000000001,98.98,34.03
14:58:29,10.269494,98.98,34.03
14:58:29,10.265655,98.98,34.03
14:58:30,10.263094,98.98,34.03
14:58:30,10.252854,98.98,34.03
14:58:30,10.255414,98.98,34.03
14:58:30,10.242614,98.98,34.03
14:58:31,10.240053999999999,99.0,34.0
14:58:31,10.246454,99.0,34.0
14:58:31,10.264375,99.0,34.0
14:58:31,10.291255,99.0,34.0
14:58:32,10.337336,99.03,34.03
14:58:32,10.374456,99.03,34.03
14:58:32,10.407737,99.03,34.03
14:58:32,10.421816999999999,99.03,34.03
14:58:33,10.417977,99.05,34.03
14:58:33,10.406457000000001,99.05,34.03
14:58:33,10.391096000000001,99.05,34.03
14:58:33,10.366776,99.05,34.03
14:58:34,10.346295,99.05,34.03
14:58:34,10.330935,99.05,34.03
14:58:34,10.309175,99.05,34.03
14:58:34,10.297655,99.05,34.03
14:58:35,10.286135,99.03,34.03
14:58:35,10.279735,99.03,34.03
14:58:35,10.273335000000001,99.03,34.03
14:58:35,10.268214,99.03,34.03
14:58:36,10.286135,98.98,34.0
14:58:36,10.291255,98.98,34.0
14:58:36,10.300215,98.98,34.0
14:58:36,10.302775,98.98,34.0
14:58:37,10.314295,99.02,34.0
14:58:37,10.307895,99.02,34.0
14:58:37,10.300215,99.02,34.0
14:58:37,10.291255,99.02,34.0
14:58:38,10.277175,99.03,34.03
14:58:38,10.269494,99.03,34.03
14:58:38,10.257975,99.03,34.03
14:58:38,10.254134,99.03,34.03
14:58:39,10.245174,99.05,34.03
14:58:39,10.228534,99.05,34.03
14:58:39,10.229814,99.05,34.03
14:58:39,10.222134,99.05,34.03
14:58:40,10.214454,99.07,34.0
14:58:40,10.209333,99.07,34.0
14:58:40,10.205492999999999,99.07,34.0
14:58:40,10.200374,99.07,34.0
14:58:41,10.192692999999998,99.08,34.05
14:58:41,10.195253,99.08,34.05
14:58:41,10.187573,99.08,34.05
14:58:41,10.190133,99.08,34.05
14:58:42,10.183733,99.1,34.03
14:58:42,10.174773,99.1,34.03
14:58:42,10.173492,99.1,34.03
14:58:42,10.167092,99.1,34.03
14:58:43,10.167092,99.12,34.03
14:58:43,10.159412,99.12,34.03
14:58:43,10.161973,99.12,34.03
14:58:43,10.158133,99.12,34.03
14:58:44,10.158133,99.13,34.03
14:58:44,10.155573,99.13,34.03
14:58:44,10.165811999999999,99.13,34.03
14:58:44,10.158133,99.13,34.03
14:58:45,10.150453,99.13,34.0
14:58:45,10.147893,99.13,34.0
14:58:45,10.138932,99.13,34.0
14:58:45,10.137652000000001,99.13,34.0
14:58:46,10.144053,99.12,34.03
14:58:46,10.137652000000001,99.12,34.03
14:58:46,10.132532000000001,99.12,34.03
14:58:46,10.126132,99.12,34.03
14:58:47,10.127412,99.1,34.03
14:58:47,10.121012,99.1,34.03
14:58:47,10.114612,99.1,34.03
14:58:47,10.109492,99.1,34.03
14:58:48,10.108212,99.1,34.03
14:58:48,10.101811,99.1,34.03
14:58:48,10.101811,99.1,34.03
14:58:48,10.101811,99.1,34.03
14:58:49,10.099252,99.1,34.03
14:58:49,10.095411,99.1,34.03
14:58:49,10.092852,99.1,34.03
14:58:49,10.089011,99.1,34.03
14:58:50,10.078772,99.12,34.0
14:58:50,10.087731,99.12,34.0
14:58:50,10.081331,99.12,34.0
14:58:50,10.082611,99.12,34.0
14:58:51,10.086452,99.13,34.03
14:58:51,10.083892,99.13,34.03
14:58:51,10.081331,99.13,34.03
14:58:51,10.082611,99.13,34.03
14:58:52,10.078772,99.15,34.03
14:58:52,10.074931,99.15,34.03
14:58:52,10.078772,99.15,34.03
14:58:52,10.076211,99.15,34.03
14:58:53,10.074931,99.18,34.03
14:58:53,10.067250999999999,99.18,34.03
14:58:53,10.071092,99.18,34.03
14:58:53,10.071092,99.18,34.03
14:58:54,10.071092,99.22,34.03
14:58:54,10.071092,99.22,34.03
14:58:54,10.065971000000001,99.22,34.03
14:58:54,10.069811,99.22,34.03
14:58:55,10.055731,99.27,34.03
14:58:55,10.062130999999999,99.27,34.03
14:58:55,10.055731,99.27,34.03
14:58:55,10.051891,99.27,34.03
14:58:56,10.046771000000001,99.3,34.05
14:58:56,10.042931,99.3,34.05
14:58:56,10.042931,99.3,34.05
14:58:56,10.039091,99.3,34.05
14:58:57,10.033971000000001,99.35,34.03
14:58:57,10.03013,99.35,34.03
14:58:57,10.026291,99.35,34.03
14:58:57,10.026291,99.35,34.03
14:58:58,10.02501,99.4,34.03
14:58:58,10.027571,99.4,34.03
14:58:58,10.01861,99.4,34.03
14:58:58,10.019891000000001,99.4,34.03
14:58:59,10.01861,99.45,34.03
14:58:59,10.01605,99.45,34.03
14:58:59,10.01605,99.45,34.03
14:58:59,10.00965,99.45,34.03
14:59:00,10.01093,99.53,34.05
14:59:00,10.00581,99.53,34.05
14:59:00,10.00581,99.53,34.05
14:59:00,10.00453,99.53,34.05
14:59:01,10.00325,99.62,34.0
14:59:01,10.00453,99.62,34.0
14:59:01,10.013491,99.62,34.0
14:59:01,10.040371,99.62,34.0
14:59:02,10.082611,99.7,34.03
14:59:02,10.128693,99.7,34.03
14:59:02,10.173492,99.7,34.03
14:59:02,10.197813,99.7,34.03
14:59:03,10.206774000000001,99.78,34.05
14:59:03,10.209333,99.78,34.05
14:59:03,10.205492999999999,99.78,34.05
14:59:03,10.188853,99.78,34.05
14:59:04,10.167092,99.88,34.05
14:59:04,10.149173,99.88,34.05
14:59:04,10.150453,99.88,34.05
14:59:04,10.128693,99.88,34.05
14:59:05,10.114612,99.98,34.03
14:59:05,10.121012,99.98,34.03
14:59:05,10.135093,99.98,34.03
14:59:05,10.158133,99.98,34.03
14:59:06,10.174773,100.1,34.05
14:59:06,10.190133,100.1,34.05
14:59:06,10.185013,100.1,34.05
14:59:06,10.173492,100.1,34.05
14:59:07,10.164533,100.22,34.05
14:59:07,10.147893,100.22,34.05
14:59:07,10.131252,100.22,34.05
14:59:07,10.117172,100.22,34.05
14:59:08,10.108212,100.32,34.05
14:59:08,10.097972,100.32,34.05
14:59:08,10.094130999999999,100.32,34.05
14:59:08,10.083892,100.32,34.05
14:59:09,10.081331,100.42,34.05
14:59:09,10.067250999999999,100.42,34.05
14:59:09,10.062130999999999,100.42,34.05
14:59:09,10.042931,100.42,34.05
14:59:10,10.064691999999999,100.53,34.05
14:59:10,10.054451,100.53,34.05
14:59:10,10.045491,100.53,34.05
14:59:10,10.03653,100.53,34.05
14:59:11,10.039091,100.65,34.05
14:59:11,10.044210000000001,100.65,34.05
14:59:11,10.040371,100.65,34.05
14:59:11,10.045491,100.65,34.05
14:59:12,10.03781,100.75,34.07
14:59:12,10.03781,100.75,34.07
14:59:12,10.032691,100.75,34.07
14:59:12,10.033971000000001,100.75,34.07
14:59:13,10.02373,100.83,34.05
14:59:13,10.019891000000001,100.83,34.05
14:59:13,10.017330000000001,100.83,34.05
14:59:13,10.01605,100.83,34.05
14:59:14,10.017330000000001,100.92,34.05
14:59:14,10.032691,100.92,34.05
14:59:14,10.053171,100.92,34.05
14:59:14,10.082611,100.92,34.05
14:59:15,10.110772,100.98,34.05
14:59:15,10.138932,100.98,34.05
14:59:15,10.163253,100.98,34.05
14:59:15,10.164533,100.98,34.05
14:59:16,10.154293,101.05,34.05
14:59:16,10.141492999999999,101.05,34.05
14:59:16,10.124852,101.05,34.05
14:59:16,10.094130999999999,101.05,34.05
14:59:17,10.091572,101.1,34.05
14:59:17,10.080051,101.1,34.05
14:59:17,10.067250999999999,101.1,34.05
14:59:17,10.065971000000001,101.1,34.05
14:59:18,10.060851,101.15,34.05
14:59:18,10.064691999999999,101.15,34.05
14:59:18,10.069811,101.15,34.05
14:59:18,10.077492,101.15,34.05
14:59:19,10.085172,101.18,34.03
14:59:19,10.092852,101.18,34.03
14:59:19,10.087731,101.18,34.03
14:59:19,10.081331,101.18,34.03
14:59:20,10.078772,101.22,34.03
14:59:20,10.067250999999999,101.22,34.03
14:59:20,10.060851,101.22,34.03
14:59:20,10.046771000000001,101.22,34.03
14:59:21,10.041651,101.25,34.03
14:59:21,10.039091,101.25,34.03
14:59:21,10.03781,101.25,34.03
14:59:21,10.03653,101.25,34.03
14:59:22,10.03781,101.27,34.03
14:59:22,10.040371,101.27,34.03
14:59:22,10.02501,101.27,34.03
14:59:22,10.01861,101.27,34.03
14:59:23,10.013491,101.27,34.0
14:59:23,10.00325,101.27,34.0
14:59:23,9.99301,101.27,34.0
14:59:23,10.01093,101.27,34.0
14:59:24,10.00197,101.27,34.05
14:59:24,10.00581,101.27,34.05
14:59:24,10.013491,101.27,34.05
14:59:24,10.013491,101.27,34.05
14:59:25,10.00965,101.25,34.05
14:59:25,10.012210000000001,101.25,34.05
14:59:25,10.00453,101.25,34.05
14:59:25,9.995569999999999,101.25,34.05
14:59:26,9.99685,101.23,34.03
14:59:26,9.99429,101.23,34.03
14:59:26,9.981489999999999,101.23,34.03
14:59:26,9.97637,101.23,34.03
14:59:27,9.96997,101.22,34.03
14:59:27,9.972529,101.22,34.03
14:59:27,9.958449,101.22,34.03
14:59:27,9.976408000000001,101.22,34.03
14:59:28,9.971288000000001,101.2,34.05
14:59:28,9.958488000000001,101.2,34.05
14:59:28,9.959767,101.2,34.05
14:59:28,9.952086999999999,101.2,34.05
14:59:29,9.949527999999999,101.17,34.05
14:59:29,9.945687,101.17,34.05
14:59:29,9.943128,101.17,34.05
14:59:29,9.932887,101.17,34.05
14:59:30,9.934167,101.13,34.03
14:59:30,9.940567,101.13,34.03
14:59:30,9.943128,101.13,34.03
14:59:30,9.940567,101.13,34.03
14:59:31,9.945687,101.08,34.03
14:59:31,9.953367,101.08,34.03
14:59:31,9.966167,101.08,34.03
14:59:31,9.975128,101.08,34.03
14:59:32,9.964888,101.03,34.05
14:59:32,10.008409,101.03,34.05
14:59:32,9.989208,101.03,34.05
14:59:32,9.994328,101.03,34.05
14:59:33,9.982808,100.98,34.0
14:59:33,9.972567999999999,100.98,34.0
14:59:33,9.959767,100.98,34.0
14:59:33,9.954647999999999,100.98,34.0
14:59:34,9.943128,100.93,34.05
14:59:34,9.934167,100.93,34.05
14:59:34,9.927767,100.93,34.05
14:59:34,9.906007,100.93,34.05
14:59:35,9.899607000000001,100.88,34.03
14:59:35,9.895766,100.88,34.03
14:59:35,9.897047,100.88,34.03
14:59:35,9.906007,100.88,34.03
14:59:36,9.923927,100.87,34.05
14:59:36,9.975128,100.87,34.05
14:59:36,10.073689,100.87,34.05
14:59:36,10.186332,100.87,34.05
14:59:37,10.231133,100.88,34.05
14:59:37,10.281053,100.88,34.05
14:59:37,10.296413000000001,100.88,34.05
14:59:37,10.298973,100.88,34.05
14:59:38,10.263133,100.95,34.03
14:59:38,10.214492,100.95,34.03
14:59:38,10.159450999999999,100.95,34.03
14:59:38,10.133851,100.95,34.03
14:59:39,10.10569,101.02,34.05
14:59:39,10.062169,101.02,34.05
14:59:39,10.019929,101.02,34.05
14:59:39,9.991767999999999,101.02,34.05
14:59:40,9.944407,101.1,34.05
14:59:40,10.039128999999999,101.1,34.05
14:59:40,10.040409,101.1,34.05
14:59:40,10.062169,101.1,34.05
14:59:41,10.124889999999999,101.2,34.05
14:59:41,10.147931,101.2,34.05
14:59:41,10.140251,101.2,34.05
14:59:41,10.135131,101.2,34.05
14:59:42,10.135131,101.33,34.05
14:59:42,10.123610000000001,101.33,34.05
14:59:42,10.11081,101.33,34.05
14:59:42,10.10057,101.33,34.05
14:59:43,10.09929,101.47,34.05
14:59:43,10.09673,101.47,34.05
14:59:43,10.104410000000001,101.47,34.05
14:59:43,10.108251,101.47,34.05
14:59:44,10.115931,101.58,34.05
14:59:44,10.114651,101.58,34.05
14:59:44,10.123610000000001,101.58,34.05
14:59:44,10.11849,101.58,34.05
14:59:45,10.108251,101.72,34.03
14:59:45,10.11721,101.72,34.03
14:59:45,10.162011,101.72,34.03
14:59:45,10.233692,101.72,34.03
14:59:46,10.338654,101.85,34.05
14:59:46,10.411615,101.85,34.05
14:59:46,10.444896,101.85,34.05
14:59:46,10.453856,101.85,34.05
14:59:47,10.462777,101.98,34.05
14:59:47,10.457658,101.98,34.05
14:59:47,10.426936999999999,101.98,34.05
14:59:47,10.388536,101.98,34.05
14:59:48,10.384696,102.12,34.05
14:59:48,10.325814999999999,102.12,34.05
14:59:48,10.287415,102.12,34.05
14:59:48,10.265655,102.12,34.05
14:59:49,10.246454,102.25,34.05
14:59:49,10.179893,102.25,34.05
14:59:49,10.161973,102.25,34.05
14:59:49,10.182453,102.25,34.05
14:59:50,10.249014,102.38,34.07
14:59:50,10.337336,102.38,34.07
14:59:50,10.347576,102.38,34.07
14:59:50,10.362936,102.38,34.07
14:59:51,10.352694999999999,102.52,34.05
14:59:51,10.359096000000001,102.52,34.05
14:59:51,10.316855,102.52,34.05
14:59:51,10.277175,102.52,34.05
14:59:52,10.270775,102.65,34.07
14:59:52,10.304055,102.65,34.07
14:59:52,10.373177,102.65,34.07
14:59:52,10.433337,102.65,34.07
14:59:53,10.481977,102.75,34.07
14:59:53,10.479417999999999,102.75,34.07
14:59:53,10.466617999999999,102.75,34.07
14:59:53,10.434617,102.75,34.07
14:59:54,10.389816,102.85,34.07
14:59:54,10.342456,102.85,34.07
14:59:54,10.334776,102.85,34.07
14:59:54,10.351416,102.85,34.07
14:59:55,10.379577000000001,102.93,34.07
14:59:55,10.398777,102.93,34.07
14:59:55,10.410296,102.93,34.07
14:59:55,10.417977,102.93,34.07
14:59:56,10.403896000000001,103.03,34.07
14:59:56,10.366776,103.03,34.07
14:59:56,10.328375999999999,103.03,34.07
14:59:56,10.296375,103.03,34.07
14:59:57,10.281014,103.12,34.07
14:59:57,10.259253999999999,103.12,34.07
14:59:57,10.240053999999999,103.12,34.07
14:59:57,10.228534,103.12,34.07
14:59:58,10.220854,103.2,34.07
14:59:58,10.206774000000001,103.2,34.07
14:59:58,10.205492999999999,103.2,34.07
14:59:58,10.195253,103.2,34.07
14:59:59,10.182453,103.28,34.07
14:59:59,10.178613,103.28,34.07
14:59:59,10.174773,103.28,34.07
14:59:59,10.182453,103.28,34.07
15:00:00,10.193974,103.35,34.07
15:00:00,10.209333,103.35,34.07
15:00:00,10.209333,103.35,34.07
15:00:00,10.210613,103.35,34.07
15:00:01,10.202933,103.42,34.07
15:00:01,10.200374,103.42,34.07
15:00:01,10.188853,103.42,34.07
15:00:01,10.177333,103.42,34.07
15:00:02,10.161973,103.48,34.09
15:00:02,10.156853,103.48,34.09
15:00:02,10.151732,103.48,34.09
15:00:02,10.137652000000001,103.48,34.09
15:00:03,10.135093,103.53,34.09
15:00:03,10.123572,103.53,34.09
15:00:03,10.118452,103.53,34.09
15:00:03,10.112052,103.53,34.09
15:00:04,10.104372,103.57,34.09
15:00:04,10.106932,103.57,34.09
15:00:04,10.112052,103.57,34.09
15:00:04,10.097972,103.57,34.09
15:00:05,10.089011,103.62,34.09
15:00:05,10.083892,103.62,34.09
15:00:05,10.074931,103.62,34.09
15:00:05,10.071092,103.62,34.09
15:00:06,10.074931,103.63,34.07
15:00:06,10.069811,103.63,34.07
15:00:06,10.062130999999999,103.63,34.07
15:00:06,10.054451,103.63,34.07
15:00:07,10.028851,103.63,34.11
15:00:07,10.00453,103.63,34.11
15:00:07,9.98405,103.63,34.11
15:00:07,9.968689999999999,103.63,34.11
15:00:08,9.946928999999999,103.62,34.09
15:00:08,9.944407,103.62,34.09
15:00:08,9.935448,103.62,34.09
15:00:08,9.907287,103.62,34.09
15:00:09,9.889366,103.57,34.11
15:00:09,9.895766,103.57,34.11
15:00:09,9.875286000000001,103.57,34.11
15:00:09,9.853525999999999,103.57,34.11
15:00:10,9.835606,103.48,34.09
15:00:10,9.830485000000001,103.48,34.09
15:00:10,9.808725,103.48,34.09
15:00:10,9.801045,103.48,34.09
15:00:11,9.798485000000001,103.37,34.09
15:00:11,9.799766,103.37,34.09
15:00:11,9.795925,103.37,34.09
15:00:11,9.812566,103.37,34.09
15:00:12,9.811285,103.25,34.09
15:00:12,9.818966,103.25,34.09
15:00:12,9.816405,103.25,34.09
15:00:12,9.806166000000001,103.25,34.09
15:00:13,9.803605000000001,103.15,34.11
15:00:13,9.802325,103.15,34.11
15:00:13,9.797205,103.15,34.11
15:00:13,9.789525,103.15,34.11
15:00:14,9.789525,103.05,34.11
15:00:14,9.784405,103.05,34.11
15:00:14,9.784405,103.05,34.11
15:00:14,9.786964999999999,103.05,34.11
15:00:15,9.789525,102.97,34.11
15:00:15,9.783125,102.97,34.11
15:00:15,9.781845,102.97,34.11
15:00:15,9.775445,102.97,34.11
15:00:16,9.775445,102.9,34.13
15:00:16,9.772884,102.9,34.13
15:00:16,9.776725,102.9,34.13
15:00:16,9.775445,102.9,34.13
15:00:17,9.772884,102.85,34.11
15:00:17,9.774165,102.85,34.11
15:00:17,9.765203999999999,102.85,34.11
15:00:17,9.765203999999999,102.85,34.11
15:00:18,9.760083999999999,102.82,34.11
15:00:18,9.762645,102.82,34.11
15:00:18,9.758804,102.82,34.11
15:00:18,9.757524,102.82,34.11
15:00:19,9.754964999999999,102.78,34.11
15:00:19,9.757524,102.78,34.11
15:00:19,9.756245,102.78,34.11
15:00:19,9.757524,102.78,34.11
15:00:20,9.757524,102.77,34.13
15:00:20,9.754964999999999,102.77,34.13
15:00:20,9.757524,102.77,34.13
15:00:20,9.748565,102.77,34.13
15:00:21,9.742165,102.73,34.11
15:00:21,9.740884,102.73,34.11
15:00:21,9.751124,102.73,34.11
15:00:21,9.772884,102.73,34.11
15:00:22,9.810005,102.72,34.11
15:00:22,9.856086,102.72,34.11
15:00:22,9.885527,102.72,34.11
15:00:22,9.904727000000001,102.72,34.11
15:00:23,9.913687,102.72,34.11
15:00:23,9.920086999999999,102.72,34.11
15:00:23,9.904727000000001,102.72,34.11
15:00:23,9.894486,102.72,34.11
15:00:24,9.872726,102.72,34.11
15:00:24,9.863767,102.72,34.11
15:00:24,9.861206,102.72,34.11
15:00:24,9.848405999999999,102.72,34.11
15:00:25,9.842006,102.73,34.11
15:00:25,9.829206,102.73,34.11
15:00:25,9.818966,102.73,34.11
15:00:25,9.808725,102.73,34.11
15:00:26,9.808725,102.75,34.11
15:00:26,9.799766,102.75,34.11
15:00:26,9.792085,102.75,34.11
15:00:26,9.790805,102.75,34.11
15:00:27,9.784405,102.77,34.11
15:00:27,9.779284,102.77,34.11
15:00:27,9.772884,102.77,34.11
15:00:27,9.771605000000001,102.77,34.11
15:00:28,9.766484,102.8,34.13
15:00:28,9.770325,102.8,34.13
15:00:28,9.761365,102.8,34.13
15:00:28,9.751124,102.8,34.13
15:00:29,9.747284,102.87,34.13
15:00:29,9.746004,102.87,34.13
15:00:29,9.737044000000001,102.87,34.13
15:00:29,9.731924000000001,102.87,34.13
15:00:30,9.729364,102.92,34.09
15:00:30,9.730644,102.92,34.09
15:00:30,9.726804,102.92,34.09
15:00:30,9.730644,102.92,34.09
15:00:31,9.731924000000001,102.98,34.13
15:00:31,9.738324,102.98,34.13
15:00:31,9.735764999999999,102.98,34.13
15:00:31,9.735764999999999,102.98,34.13
15:00:32,9.730644,103.05,34.13
15:00:32,9.726804,103.05,34.13
15:00:32,9.719124,103.05,34.13
15:00:32,9.717844,103.05,34.13
15:00:33,9.710164,103.12,34.13
15:00:33,9.712724,103.12,34.13
15:00:33,9.706324,103.12,34.13
15:00:33,9.703764,103.12,34.13
15:00:34,9.699924000000001,103.17,34.11
15:00:34,9.696083,103.17,34.11
15:00:34,9.692244,103.17,34.11
15:00:34,9.689683,103.17,34.11
15:00:35,9.685842999999998,103.23,34.13
15:00:35,9.684564,103.23,34.13
15:00:35,9.676883,103.23,34.13
15:00:35,9.676883,103.23,34.13
15:00:36,9.669203,103.28,34.15
15:00:36,9.670483,103.28,34.15
15:00:36,9.669203,103.28,34.15
15:00:36,9.662803,103.28,34.15
15:00:37,9.666642999999999,103.32,34.13
15:00:37,9.661522999999999,103.32,34.13
15:00:37,9.656403,103.32,34.13
15:00:37,9.655123,103.32,34.13
15:00:38,9.657682000000001,103.32,34.13
15:00:38,9.666642999999999,103.32,34.13
15:00:38,9.675603,103.32,34.13
15:00:38,9.701203,103.32,34.13
15:00:39,9.720403999999998,103.32,34.13
15:00:39,9.735764999999999,103.32,34.13
15:00:39,9.746004,103.32,34.13
15:00:39,9.747284,103.32,34.13
15:00:40,9.739604,103.32,34.13
15:00:40,9.725524,103.32,34.13
15:00:40,9.711444,103.32,34.13
15:00:40,9.699924000000001,103.32,34.13
15:00:41,9.690964,103.32,34.11
15:00:41,9.687123,103.32,34.11
15:00:41,9.680723,103.32,34.11
15:00:41,9.673043,103.32,34.11
15:00:42,9.669203,103.3,34.13
15:00:42,9.665363000000001,103.3,34.13
15:00:42,9.666642999999999,103.3,34.13
15:00:42,9.656403,103.3,34.13
15:00:43,9.653843,103.28,34.13
15:00:43,9.648723,103.28,34.13
15:00:43,9.650002,103.28,34.13
15:00:43,9.643602,103.28,34.13
15:00:44,9.648723,103.28,34.13
15:00:44,9.647442999999999,103.28,34.13
15:00:44,9.656403,103.28,34.13
15:00:44,9.647442999999999,103.28,34.13
15:00:45,9.648723,103.28,34.11
15:00:45,9.656403,103.28,34.11
15:00:45,9.679443,103.28,34.11
15:00:45,9.738324,103.28,34.11
15:00:46,9.816405,103.28,34.11
15:00:46,9.921367,103.28,34.11
15:00:46,10.023767999999999,103.28,34.11
15:00:46,10.114651,103.28,34.11
15:00:47,10.202971,103.3,34.13
15:00:47,10.255452,103.3,34.13
15:00:47,10.259293,103.3,34.13
15:00:47,10.245213,103.3,34.13
15:00:48,10.209372,103.32,34.11
15:00:48,10.169691,103.32,34.11
15:00:48,10.121051,103.32,34.11
15:00:48,10.08009,103.32,34.11
15:00:49,10.042969,103.35,34.11
15:00:49,10.012249,103.35,34.11
15:00:49,9.984088,103.35,34.11
15:00:49,9.961048,103.35,34.11
15:00:50,9.936728,103.4,34.11
15:00:50,9.923927,103.4,34.11
15:00:50,9.903447,103.4,34.11
15:00:50,9.894486,103.4,34.11
15:00:51,9.885527,103.47,34.13
15:00:51,9.877847000000001,103.47,34.13
15:00:51,9.868886,103.47,34.13
15:00:51,9.859926,103.47,34.13
15:00:52,9.853525999999999,103.55,34.15
15:00:52,9.850966,103.55,34.15
15:00:52,9.843286,103.55,34.15
15:00:52,9.834325999999999,103.55,34.15
15:00:53,9.830485000000001,103.65,34.13
15:00:53,9.815125,103.65,34.13
15:00:53,9.818966,103.65,34.13
15:00:53,9.810005,103.65,34.13
15:00:54,9.799766,103.75,34.15
15:00:54,9.799766,103.75,34.15
15:00:54,9.792085,103.75,34.15
15:00:54,9.785685,103.75,34.15
15:00:55,9.784405,103.83,34.15
15:00:55,9.781845,103.83,34.15
15:00:55,9.774165,103.83,34.15
15:00:55,9.770325,103.83,34.15
15:00:56,9.766484,103.88,34.13
15:00:56,9.758804,103.88,34.13
15:00:56,9.756245,103.88,34.13
15:00:56,9.778005,103.88,34.13
15:00:57,9.778005,103.9,34.13
15:00:57,9.780565,103.9,34.13
15:00:57,9.760083999999999,103.9,34.13
15:00:57,9.756245,103.9,34.13
15:00:58,9.743444,103.97,34.13
15:00:58,9.748565,103.97,34.13
15:00:58,9.737044000000001,103.97,34.13
15:00:58,9.693522999999999,103.97,34.13
15:00:59,9.739604,104.02,34.11
15:00:59,9.721684,104.02,34.11
15:00:59,9.719124,104.02,34.11
15:00:59,9.711444,104.02,34.11
15:01:00,9.712724,104.03,34.13
15:01:00,9.721684,104.03,34.13
15:01:00,9.729364,104.03,34.13
15:01:00,9.748565,104.03,34.13
15:01:01,9.761365,104.03,34.11
15:01:01,9.766484,104.03,34.11
15:01:01,9.774165,104.03,34.11
15:01:01,9.781845,104.03,34.11
15:01:02,9.728083999999999,104.03,34.13
15:01:02,9.676883,104.03,34.13
15:01:02,9.690964,104.03,34.13
15:01:02,9.739604,104.03,34.13
15:01:03,9.694803,104.03,34.13
15:01:03,9.615442,104.03,34.13
15:01:03,9.575762,104.03,34.13
15:01:03,9.783125,104.03,34.13
15:01:04,9.770325,104.03,34.11
15:01:04,9.687123,104.03,34.11
15:01:04,9.676883,104.03,34.11
15:01:04,9.739604,104.03,34.11
15:01:05,9.866325999999999,104.02,34.11
15:01:05,9.753684,104.02,34.11
15:01:05,9.746004,104.02,34.11
15:01:05,9.808725,104.02,34.11
15:01:06,9.971288000000001,103.93,34.11
15:01:06,10.048089,103.93,34.11
15:01:06,10.013529,103.93,34.11
15:01:06,9.952086999999999,103.93,34.11
15:01:07,10.021208999999999,103.9,34.11
15:01:07,10.028889,103.9,34.11
15:01:07,10.002008,103.9,34.11
15:01:07,9.961048,103.9,34.11
15:01:08,9.938007,103.9,34.15
15:01:08,9.658963,103.9,34.15
15:01:08,9.551441,103.9,34.15
15:01:08,9.611602,103.9,34.15
15:01:09,9.662803,103.95,34.11
15:01:09,9.701203,103.95,34.11
15:01:09,9.812566,103.95,34.11
15:01:09,9.964888,103.95,34.11
15:01:10,10.135131,104.05,34.11
15:01:10,10.223452,104.05,34.11
15:01:10,10.338654,104.05,34.11
15:01:10,10.398814999999999,104.05,34.11
15:01:11,10.386014999999999,104.18,34.09
15:01:11,10.438496,104.18,34.09
15:01:11,10.521697,104.18,34.09
15:01:11,10.6471,104.18,34.09
15:01:12,10.694462,104.37,34.11
15:01:12,10.689342,104.37,34.11
15:01:12,10.6279,104.37,34.11
15:01:12,10.570299,104.37,34.11
15:01:13,10.501178,104.57,34.11
15:01:13,10.442297,104.57,34.11
15:01:13,10.400057,104.57,34.11
15:01:13,10.350136000000001,104.57,34.11
15:01:14,10.301495,104.8,34.11
15:01:14,10.260534,104.8,34.11
15:01:14,10.229814,104.8,34.11
15:01:14,10.201653,104.8,34.11
15:01:15,10.185013,105.03,34.13
15:01:15,10.172213000000001,105.03,34.13
15:01:15,10.176053,105.03,34.13
15:01:15,10.167092,105.03,34.13
15:01:16,10.137652000000001,105.27,34.13
15:01:16,10.190133,105.27,34.13
15:01:16,10.147893,105.27,34.13
15:01:16,10.129972,105.27,34.13
15:01:17,10.117172,105.52,34.13
15:01:17,10.113332000000002,105.52,34.13
15:01:17,10.149173,105.52,34.13
15:01:17,10.187573,105.52,34.13
15:01:18,10.232374,105.75,34.11
15:01:18,10.284855,105.75,34.11
15:01:18,10.301495,105.75,34.11
15:01:18,10.298935,105.75,34.11
15:01:19,10.291255,105.98,34.13
15:01:19,10.278455000000001,105.98,34.13
15:01:19,10.254134,105.98,34.13
15:01:19,10.236214,105.98,34.13
15:01:20,10.233654,106.18,34.13
15:01:20,10.233654,106.18,34.13
15:01:20,10.231093,106.18,34.13
15:01:20,10.220854,106.18,34.13
15:01:21,10.214454,106.38,34.13
15:01:21,10.206774000000001,106.38,34.13
15:01:21,10.196533,106.38,34.13
15:01:21,10.196533,106.38,34.13
15:01:22,10.190133,106.57,34.11
15:01:22,10.190133,106.57,34.11
15:01:22,10.186293,106.57,34.11
15:01:22,10.191413,106.57,34.11
15:01:23,10.202933,106.73,34.13
15:01:23,10.222134,106.73,34.13
15:01:23,10.217013,106.73,34.13
15:01:23,10.224692999999998,106.73,34.13
15:01:24,10.215734,106.88,34.11
15:01:24,10.206774000000001,106.88,34.11
15:01:24,10.209333,106.88,34.11
15:01:24,10.202933,106.88,34.11
15:01:25,10.187573,106.98,34.13
15:01:25,10.179893,106.98,34.13
15:01:25,10.172213000000001,106.98,34.13
15:01:25,10.164533,106.98,34.13
15:01:26,10.158133,107.05,34.13
15:01:26,10.151732,107.05,34.13
15:01:26,10.151732,107.05,34.13
15:01:26,10.144053,107.05,34.13
15:01:27,10.149173,107.07,34.13
15:01:27,10.192692999999998,107.07,34.13
15:01:27,10.387257,107.07,34.13
15:01:27,10.589499,107.07,34.13
15:01:28,10.785343,107.02,34.11
15:01:28,10.958146000000001,107.02,34.11
15:01:28,11.121267999999999,107.02,34.11
15:01:28,11.21599,107.02,34.11
15:01:29,11.258231,106.9,34.11
15:01:29,11.291511999999999,106.9,34.11
15:01:29,11.319672,106.9,34.11
15:01:29,11.349113000000001,106.9,34.11
15:01:30,11.352952,106.77,34.13
15:01:30,11.319672,106.77,34.13
15:01:30,11.232631,106.77,34.13
15:01:30,11.132789,106.77,34.13
15:01:31,11.026546000000002,106.6,34.13
15:01:31,10.933105,106.6,34.13
15:01:31,10.856304,106.6,34.13
15:01:31,10.797423,106.6,34.13
15:01:32,10.755182000000001,106.42,34.13
15:01:32,10.724463,106.42,34.13
15:01:32,10.684781,106.42,34.13
15:01:32,10.664301,106.42,34.13
15:01:33,10.64638,106.22,34.11
15:01:33,10.627180000000001,106.22,34.11
15:01:33,10.61054,106.22,34.11
15:01:33,10.59262,106.22,34.11
15:01:34,10.58494,106.03,34.13
15:01:34,10.57086,106.03,34.13
15:01:34,10.550379,106.03,34.13
15:01:34,10.541419,106.03,34.13
15:01:35,10.526059,105.85,34.13
15:01:35,10.522219,105.85,34.13
15:01:35,10.503017999999999,105.85,34.13
15:01:35,10.499178,105.85,34.13
15:01:36,10.483818,105.67,34.13
15:01:36,10.473577,105.67,34.13
15:01:36,10.464618,105.67,34.13
15:01:36,10.460217,105.67,34.13
15:01:37,10.453816999999999,105.48,34.13
15:01:37,10.444858,105.48,34.13
15:01:37,10.438457000000001,105.48,34.13
15:01:37,10.438457000000001,105.48,34.13
15:01:38,10.438457000000001,105.32,34.13
15:01:38,10.434617,105.32,34.13
15:01:38,10.428217,105.32,34.13
15:01:38,10.426936999999999,105.32,34.13
15:01:39,10.424377,105.17,34.13
15:01:39,10.416697000000001,105.17,34.13
15:01:39,10.405177,105.17,34.13
15:01:39,10.405177,105.17,34.13
15:01:40,10.388536,105.03,34.11
15:01:40,10.388536,105.03,34.11
15:01:40,10.383416,105.03,34.11
15:01:40,10.375736,105.03,34.11
15:01:41,10.369336,104.9,34.11
15:01:41,10.373177,104.9,34.11
15:01:41,10.364216,104.9,34.11
15:01:41,10.362936,104.9,34.11
15:01:42,10.353976,104.77,34.11
15:01:42,10.352694999999999,104.77,34.11
15:01:42,10.353976,104.77,34.11
15:01:42,10.352694999999999,104.77,34.11
15:01:43,10.359096000000001,104.65,34.13
15:01:43,10.356536,104.65,34.13
15:01:43,10.343736,104.65,34.13
15:01:43,10.333495,104.65,34.13
15:01:44,10.328375999999999,104.53,34.11
15:01:44,10.328375999999999,104.53,34.11
15:01:44,10.329656,104.53,34.11
15:01:44,10.321976,104.53,34.11
15:01:45,10.321976,104.4,34.11
15:01:45,10.323256,104.4,34.11
15:01:45,10.323256,104.4,34.11
15:01:45,10.351416,104.4,34.11
15:01:46,10.411577000000001,104.28,34.13
15:01:46,10.520378,104.28,34.13
15:01:46,10.671421,104.28,34.13
15:01:46,10.823744,104.28,34.13
15:01:47,10.935105,104.15,34.11
15:01:47,11.000386,104.15,34.11
15:01:47,11.044467,104.15,34.11
15:01:47,11.030387,104.15,34.11
15:01:48,10.994547,104.0,34.11
15:01:48,10.945905999999999,104.0,34.11
15:01:48,10.897264,104.0,34.11
15:01:48,10.860145,104.0,34.11
15:01:49,10.885745,103.83,34.11
15:01:49,10.959986,103.83,34.11
15:01:49,11.040627,103.83,34.11
15:01:49,11.104629,103.83,34.11
15:01:50,11.150708999999999,103.65,34.13
15:01:50,11.191669000000001,103.65,34.13
15:01:50,11.180149,103.65,34.13
15:01:50,11.145589,103.65,34.13
15:01:51,11.098228,103.45,34.11
15:01:51,11.048307000000001,103.45,34.11
15:01:51,11.039347,103.45,34.11
15:01:51,11.103348,103.45,34.11
15:01:52,11.22367,103.23,34.11
15:01:52,11.335032,103.23,34.11
15:01:52,11.390073,103.23,34.11
15:01:52,11.414392999999999,103.23,34.11
15:01:53,11.402873,103.02,34.11
15:01:53,11.413114,103.02,34.11
15:01:53,11.422073,103.02,34.11
15:01:53,11.437433,103.02,34.11
15:01:54,11.436153,102.8,34.11
15:01:54,11.414392999999999,102.8,34.11
15:01:54,11.375993,102.8,34.11
15:01:54,11.327352000000001,102.8,34.11
15:01:55,11.290232000000001,102.6,34.11
15:01:55,11.264631,102.6,34.11
15:01:55,11.24287,102.6,34.11
15:01:55,11.221110000000001,102.6,34.11
15:01:56,11.19807,102.43,34.13
15:01:56,11.160949,102.43,34.13
15:01:56,11.131509,102.43,34.13
15:01:56,11.093108,102.43,34.13
15:01:57,11.064947,102.3,34.09
15:01:57,11.041907,102.3,34.09
15:01:57,11.013747,102.3,34.09
15:01:57,10.999666,102.3,34.09
15:01:58,10.976626,102.12,34.11
15:01:58,10.961266,102.12,34.11
15:01:58,10.948464999999999,102.12,34.11
15:01:58,10.935665,102.12,34.11
15:01:59,10.921585,101.93,34.11
15:01:59,10.925426,101.93,34.11
15:01:59,10.913905,101.93,34.11
15:01:59,10.899825,101.93,34.11
15:02:00,10.889585,101.78,34.11
15:02:00,10.880625,101.78,34.11
15:02:00,10.872945,101.78,34.11
15:02:00,10.867825,101.78,34.11
15:02:01,10.855024,101.63,34.11
15:02:01,10.856304,101.63,34.11
15:02:01,10.857584,101.63,34.11
15:02:01,10.875504,101.63,34.11
15:02:02,10.903665,101.48,34.13
15:02:02,10.921585,101.48,34.13
15:02:02,10.939506,101.48,34.13
15:02:02,10.938226,101.48,34.13
15:02:03,10.922865,101.33,34.11
15:02:03,10.912625,101.33,34.11
15:02:03,10.897264,101.33,34.11
15:02:03,10.876783999999999,101.33,34.11
15:02:04,10.875504,101.17,34.09
15:02:04,10.901105000000001,101.17,34.09
15:02:04,10.948464999999999,101.17,34.09
15:02:04,10.997107000000002,101.17,34.09
15:02:05,11.036787,101.0,34.11
15:02:05,11.049586999999999,101.0,34.11
15:02:05,11.047028,101.0,34.11
15:02:05,11.031667,101.0,34.11
15:02:06,11.017586999999999,100.92,34.11
15:02:06,11.008627,100.92,34.11
15:02:06,10.999666,100.92,34.11
15:02:06,10.995827,100.92,34.11
15:02:07,10.997107000000002,100.8,34.13
15:02:07,11.004786,100.8,34.13
15:02:07,10.999666,100.8,34.13
15:02:07,10.997107000000002,100.8,34.13
15:02:08,10.989427000000001,100.67,34.11
15:02:08,10.976626,100.67,34.11
15:02:08,10.967666,100.67,34.11
15:02:08,10.961266,100.67,34.11
15:02:09,10.951025999999999,100.52,34.11
15:02:09,10.938226,100.52,34.11
15:02:09,10.926705,100.52,34.11
15:02:09,10.916464999999999,100.52,34.11
15:02:10,10.907505,100.37,34.09
15:02:10,10.904945,100.37,34.09
15:02:10,10.890864,100.37,34.09
15:02:10,10.885745,100.37,34.09
15:02:11,10.876783999999999,100.22,34.09
15:02:11,10.874225,100.22,34.09
15:02:11,10.866545,100.22,34.09
15:02:11,10.857584,100.22,34.09
15:02:12,10.851184,100.03,34.11
15:02:12,10.842224,100.03,34.11
15:02:12,10.838384,100.03,34.11
15:02:12,10.835824,100.03,34.11
15:02:13,10.837104,99.83,34.11
15:02:13,10.851184,99.83,34.11
15:02:13,10.851184,99.83,34.11
15:02:13,10.856304,99.83,34.11
15:02:14,10.849903999999999,99.6,34.09
15:02:14,10.849903999999999,99.6,34.09
15:02:14,10.839663999999999,99.6,34.09
15:02:14,10.834544000000001,99.6,34.09
15:02:15,10.826863000000001,99.37,34.09
15:02:15,10.823024,99.37,34.09
15:02:15,10.823024,99.37,34.09
15:02:15,10.815344,99.37,34.09
15:02:16,10.814063,99.12,34.11
15:02:16,10.811503,99.12,34.11
15:02:16,10.802544000000001,99.12,34.11
15:02:16,10.805102999999999,99.12,34.11
15:02:17,10.819183,98.85,34.09
15:02:17,10.840944,98.85,34.09
15:02:17,10.849903999999999,98.85,34.09
15:02:17,10.856304,98.85,34.09
15:02:18,10.853745,98.6,34.11
15:02:18,10.847344,98.6,34.11
15:02:18,10.838384,98.6,34.11
15:02:18,10.834544000000001,98.6,34.11
15:02:19,10.821744,98.35,34.09
15:02:19,10.816624000000001,98.35,34.09
15:02:19,10.802544000000001,98.35,34.09
15:02:19,10.794863000000001,98.35,34.09
15:02:20,10.787183,98.12,34.07
15:02:20,10.788463,98.12,34.07
15:02:20,10.780783,98.12,34.07
15:02:20,10.775661999999999,98.12,34.07
15:02:21,10.765423,97.9,34.09
15:02:21,10.761582,97.9,34.09
15:02:21,10.765423,97.9,34.09
15:02:21,10.761582,97.9,34.09
15:02:22,10.755182000000001,97.7,34.09
15:02:22,10.757743,97.7,34.09
15:02:22,10.753902,97.7,34.09
15:02:22,10.744943,97.7,34.09
15:02:23,10.744943,97.52,34.09
15:02:23,10.746222,97.52,34.09
15:02:23,10.732142,97.52,34.09
15:02:23,10.723182000000001,97.52,34.09
15:02:24,10.723182000000001,97.33,34.07
15:02:24,10.711661999999999,97.33,34.07
15:02:24,10.718062,97.33,34.07
15:02:24,10.706542,97.33,34.07
15:02:25,10.702702,97.18,34.09
15:02:25,10.700142,97.18,34.09
15:02:25,10.688622,97.18,34.09
15:02:25,10.680942,97.18,34.09
15:02:26,10.682221,97.05,34.09
15:02:26,10.683501,97.05,34.09
15:02:26,10.680942,97.05,34.09
15:02:26,10.680942,97.05,34.09
15:02:27,10.687342,96.95,34.07
15:02:27,10.688622,96.95,34.07
15:02:27,10.687342,96.95,34.07
15:02:27,10.682221,96.95,34.07
15:02:28,10.678381,96.9,34.09
15:02:28,10.675821000000001,96.9,34.09
15:02:28,10.668141,96.9,34.09
15:02:28,10.661741000000001,96.9,34.09
15:02:29,10.661741000000001,96.88,34.07
15:02:29,10.663021,96.88,34.07
15:02:29,10.660461,96.88,34.07
15:02:29,10.665581,96.88,34.07
15:02:30,10.660461,96.9,34.09
15:02:30,10.666862,96.9,34.09
15:02:30,10.655341,96.9,34.09
15:02:30,10.645100999999999,96.9,34.09
15:02:31,10.643821,96.93,34.07
15:02:31,10.634861,96.93,34.07
15:02:31,10.63358,96.93,34.07
15:02:31,10.623341,96.93,34.07
15:02:32,10.62078,96.98,34.05
15:02:32,10.62078,96.98,34.05
15:02:32,10.62078,96.98,34.05
15:02:32,10.6131,96.98,34.05
15:02:33,10.61182,97.05,34.07
15:02:33,10.6131,97.05,34.07
15:02:33,10.61438,97.05,34.07
15:02:33,10.61182,97.05,34.07
15:02:34,10.615661,97.13,34.09
15:02:34,10.61054,97.13,34.09
15:02:34,10.60798,97.13,34.09
15:02:34,10.60798,97.13,34.09
15:02:35,10.60798,97.22,34.05
15:02:35,10.59902,97.22,34.05
15:02:35,10.59646,97.22,34.05
15:02:35,10.590060000000001,97.22,34.05
15:02:36,10.58494,97.3,34.07
15:02:36,10.5811,97.3,34.07
15:02:36,10.57854,97.3,34.07
15:02:36,10.57086,97.3,34.07
15:02:37,10.567019,97.38,34.07
15:02:37,10.559339999999999,97.38,34.07
15:02:37,10.561899,97.38,34.07
15:02:37,10.555499000000001,97.38,34.07
15:02:38,10.560619,97.45,34.09
15:02:38,10.55166,97.45,34.09
15:02:38,10.546539,97.45,34.09
15:02:38,10.545259,97.45,34.09
15:02:39,10.538859,97.5,34.07
15:02:39,10.537579,97.5,34.07
15:02:39,10.529899,97.5,34.07
15:02:39,10.529899,97.5,34.07
15:02:40,10.524778,97.52,34.09
15:02:40,10.523499000000001,97.52,34.09
15:02:40,10.518378,97.52,34.09
15:02:40,10.514539,97.52,34.09
15:02:41,10.513259,97.53,34.07
15:02:41,10.509418,97.53,34.07
15:02:41,10.503017999999999,97.53,34.07
15:02:41,10.494059,97.53,34.07
15:02:42,10.490217999999999,97.55,34.07
15:02:42,10.490217999999999,97.55,34.07
15:02:42,10.485097999999999,97.55,34.07
15:02:42,10.485097999999999,97.55,34.07
15:02:43,10.479978,97.55,34.07
15:02:43,10.487658999999999,97.55,34.07
15:02:43,10.497898,97.55,34.07
15:02:43,10.509418,97.55,34.07
15:02:44,10.526059,97.57,34.07
15:02:44,10.542699,97.57,34.07
15:02:44,10.569579,97.57,34.07
15:02:44,10.567019,97.57,34.07
15:02:45,10.568299,97.6,34.09
15:02:45,10.56446,97.6,34.09
15:02:45,10.554219,97.6,34.09
15:02:45,10.546539,97.6,34.09
15:02:46,10.536299,97.63,34.07
15:02:46,10.528619,97.63,34.07
15:02:46,10.523499000000001,97.63,34.07
15:02:46,10.518378,97.63,34.07
15:02:47,10.511978,97.67,34.05
15:02:47,10.504298,97.67,34.05
15:02:47,10.494059,97.67,34.05
15:02:47,10.492778,97.67,34.05
15:02:48,10.487658999999999,97.7,34.07
15:02:48,10.488938000000001,97.7,34.07
15:02:48,10.479978,97.7,34.07
15:02:48,10.471017999999999,97.7,34.07
15:02:49,10.472298,97.73,34.07
15:02:49,10.465898,97.73,34.07
15:02:49,10.470458,97.73,34.07
15:02:49,10.466617999999999,97.73,34.07
15:02:50,10.465338000000001,97.77,34.07
15:02:50,10.456377,97.77,34.07
15:02:50,10.455097,97.77,34.07
15:02:50,10.449977,97.77,34.07
15:02:51,10.448697,97.8,34.03
15:02:51,10.444858,97.8,34.03
15:02:51,10.438457000000001,97.8,34.03
15:02:51,10.430778,97.8,34.03
15:02:52,10.430778,97.82,34.07
15:02:52,10.428217,97.82,34.07
15:02:52,10.420537,97.82,34.07
15:02:52,10.412857,97.82,34.07
15:02:53,10.412857,97.83,34.09
15:02:53,10.414137,97.83,34.09
15:02:53,10.409017,97.83,34.09
15:02:53,10.407737,97.83,34.09
15:02:54,10.405177,97.85,34.03
15:02:54,10.401337,97.85,34.03
15:02:54,10.396216,97.85,34.03
15:02:54,10.394936999999999,97.85,34.03
15:02:55,10.392377,97.87,34.07
15:02:55,10.385977,97.87,34.07
15:02:55,10.382136000000001,97.87,34.07
15:02:55,10.379577000000001,97.87,34.07
15:02:56,10.379577000000001,97.88,34.09
15:02:56,10.382136000000001,97.88,34.09
15:02:56,10.371896000000001,97.88,34.09
15:02:56,10.369336,97.88,34.09
15:02:57,10.369336,97.9,34.07
15:02:57,10.362936,97.9,34.07
15:02:57,10.360375999999999,97.9,34.07
15:02:57,10.353976,97.9,34.07
15:02:58,10.348856,97.93,34.07
15:02:58,10.351416,97.93,34.07
15:02:58,10.339895,97.93,34.07
15:02:58,10.338614999999999,97.93,34.07
15:02:59,10.336056,97.98,34.05
15:02:59,10.330935,97.98,34.05
15:02:59,10.332215,97.98,34.05
15:02:59,10.332215,97.98,34.05
15:03:00,10.333495,98.05,34.07
15:03:00,10.327095,98.05,34.07
15:03:00,10.323256,98.05,34.07
15:03:00,10.321976,98.05,34.07
15:03:01,10.314295,98.15,34.07
15:03:01,10.318135,98.15,34.07
15:03:01,10.311735,98.15,34.07
15:03:01,10.316855,98.15,34.07
15:03:02,10.318135,98.25,34.05
15:03:02,10.325814999999999,98.25,34.05
15:03:02,10.321976,98.25,34.05
15:03:02,10.324535000000001,98.25,34.05
15:03:03,10.316855,98.37,34.07
15:03:03,10.315576,98.37,34.07
15:03:03,10.310455000000001,98.37,34.07
15:03:03,10.307895,98.37,34.07
15:03:04,10.302775,98.5,34.07
15:03:04,10.297655,98.5,34.07
15:03:04,10.307895,98.5,34.07
15:03:04,10.313015,98.5,34.07
15:03:05,10.325814999999999,98.63,34.07
15:03:05,10.350136000000001,98.63,34.07
15:03:05,10.364216,98.63,34.07
15:03:05,10.369336,98.63,34.07
15:03:06,10.366776,98.78,34.07
15:03:06,10.371896000000001,98.78,34.07
15:03:06,10.360375999999999,98.78,34.07
15:03:06,10.350136000000001,98.78,34.07
15:03:07,10.343736,98.93,34.07
15:03:07,10.339895,98.93,34.07
15:03:07,10.329656,98.93,34.07
15:03:07,10.324535000000001,98.93,34.07
15:03:08,10.316855,99.1,34.05
15:03:08,10.319415,99.1,34.05
15:03:08,10.310455000000001,99.1,34.05
15:03:08,10.306614999999999,99.1,34.05
15:03:09,10.305335000000001,99.25,34.07
15:03:09,10.295094,99.25,34.07
15:03:09,10.289975,99.25,34.07
15:03:09,10.284855,99.25,34.07
15:03:10,10.282294,99.38,34.07
15:03:10,10.275894000000001,99.38,34.07
15:03:10,10.274614,99.38,34.07
15:03:10,10.270775,99.38,34.07
15:03:11,10.273335000000001,99.52,34.07
15:03:11,10.264375,99.52,34.07
15:03:11,10.266934,99.52,34.07
15:03:11,10.272055,99.52,34.07
15:03:12,10.274614,99.65,34.05
15:03:12,10.275894000000001,99.65,34.05
15:03:12,10.279735,99.65,34.05
15:03:12,10.279735,99.65,34.05
15:03:13,10.282294,99.77,34.05
15:03:13,10.284855,99.77,34.05
15:03:13,10.274614,99.77,34.05
15:03:13,10.274614,99.77,34.05
15:03:14,10.286135,99.88,34.03
15:03:14,10.307895,99.88,34.03
15:03:14,10.334776,99.88,34.03
15:03:14,10.369336,99.88,34.03
15:03:15,10.380857,99.98,34.07
15:03:15,10.396216,99.98,34.07
15:03:15,10.387257,99.98,34.07
15:03:15,10.379577000000001,99.98,34.07
15:03:16,10.369336,100.08,34.05
15:03:16,10.366776,100.08,34.05
15:03:16,10.370616,100.08,34.05
15:03:16,10.366776,100.08,34.05
15:03:17,10.373177,100.2,34.05
15:03:17,10.371896000000001,100.2,34.05
15:03:17,10.368056,100.2,34.05
15:03:17,10.356536,100.2,34.05
15:03:18,10.350136000000001,100.32,34.05
15:03:18,10.339895,100.32,34.05
15:03:18,10.333495,100.32,34.05
15:03:18,10.321976,100.32,34.05
15:03:19,10.310455000000001,100.43,34.05
15:03:19,10.300215,100.43,34.05
15:03:19,10.293814999999999,100.43,34.05
15:03:19,10.287415,100.43,34.05
15:03:20,10.281014,100.55,34.05
15:03:20,10.279735,100.55,34.05
15:03:20,10.270775,100.55,34.05
15:03:20,10.281014,100.55,34.05
15:03:21,10.327095,100.67,34.05
15:03:21,10.389816,100.67,34.05
15:03:21,10.453816999999999,100.67,34.05
15:03:21,10.519098,100.67,34.05
15:03:22,10.569019,100.78,34.05
15:03:22,10.579260000000001,100.78,34.05
15:03:22,10.57286,100.78,34.05
15:03:22,10.558779,100.78,34.05
15:03:23,10.531898,100.9,34.05
15:03:23,10.502459,100.9,34.05
15:03:23,10.471738,100.9,34.05
15:03:23,10.444858,100.9,34.05
15:03:24,10.424377,101.03,34.05
15:03:24,10.403896000000001,101.03,34.05
15:03:24,10.398777,101.03,34.05
15:03:24,10.388536,101.03,34.05
15:03:25,10.371896000000001,101.17,34.05
15:03:25,10.361656,101.17,34.05
15:03:25,10.359096000000001,101.17,34.05
15:03:25,10.377016000000001,101.17,34.05
15:03:26,10.406457000000001,101.3,34.05
15:03:26,10.442297,101.3,34.05
15:03:26,10.470458,101.3,34.05
15:03:26,10.490938,101.3,34.05
15:03:27,10.494778,101.43,34.05
15:03:27,10.489658,101.43,34.05
15:03:27,10.478138000000001,101.43,34.05
15:03:27,10.457658,101.43,34.05
15:03:28,10.469177,101.6,34.05
15:03:28,10.508859,101.6,34.05
15:03:28,10.570299,101.6,34.05
15:03:28,10.631741,101.6,34.05
15:03:29,10.680381,101.78,34.05
15:03:29,10.690621,101.78,34.05
15:03:29,10.675261,101.78,34.05
15:03:29,10.645821,101.78,34.05
15:03:30,10.60998,101.95,34.03
15:03:30,10.577979,101.95,34.03
15:03:30,10.542139,101.95,34.03
15:03:30,10.515259,101.95,34.03
15:03:31,10.489658,102.12,34.05
15:03:31,10.471738,102.12,34.05
15:03:31,10.429497,102.12,34.05
15:03:31,10.407737,102.12,34.05
15:03:32,10.429497,102.27,34.05
15:03:32,10.476858,102.27,34.05
15:03:32,10.493497999999999,102.27,34.05
15:03:32,10.515259,102.27,34.05
15:03:33,10.466617999999999,102.37,34.03
15:03:33,10.425657000000001,102.37,34.03
15:03:33,10.502459,102.37,34.03
15:03:33,10.478138000000001,102.37,34.03
15:03:34,10.457658,102.33,34.05
15:03:34,10.447417,102.33,34.05
15:03:34,10.426936999999999,102.33,34.05
15:03:34,10.416697000000001,102.33,34.05
15:03:35,10.398777,102.37,34.03
15:03:35,10.391096000000001,102.37,34.03
15:03:35,10.398777,102.37,34.03
15:03:35,10.428217,102.37,34.03
15:03:36,10.394936999999999,102.4,34.05
15:03:36,10.375736,102.4,34.05
15:03:36,10.357816,102.4,34.05
15:03:36,10.384696,102.4,34.05
15:03:37,10.339895,102.43,34.05
15:03:37,10.298935,102.43,34.05
15:03:37,10.266934,102.43,34.05
15:03:37,10.238774000000001,102.43,34.05
15:03:38,10.225974,102.5,34.05
15:03:38,10.224692999999998,102.5,34.05
15:03:38,10.218293,102.5,34.05
15:03:38,10.218293,102.5,34.05
15:03:39,10.240053999999999,102.6,34.05
15:03:39,10.275894000000001,102.6,34.05
15:03:39,10.302775,102.6,34.05
15:03:39,10.324535000000001,102.6,34.05
15:03:40,10.316855,102.73,34.03
15:03:40,10.310455000000001,102.73,34.03
15:03:40,10.287415,102.73,34.03
15:03:40,10.272055,102.73,34.03
15:03:41,10.256694,102.88,34.03
15:03:41,10.247734,102.88,34.03
15:03:41,10.263094,102.88,34.03
15:03:41,10.307895,102.88,34.03
15:03:42,10.352694999999999,103.07,34.05
15:03:42,10.397496,103.07,34.05
15:03:42,10.415417,103.07,34.05
15:03:42,10.417977,103.07,34.05
15:03:43,10.412857,103.27,34.03
15:03:43,10.398777,103.27,34.03
15:03:43,10.377016000000001,103.27,34.03
15:03:43,10.355255999999999,103.27,34.03
15:03:44,10.328375999999999,103.45,34.03
15:03:44,10.310455000000001,103.45,34.03
15:03:44,10.309175,103.45,34.03
15:03:44,10.289975,103.45,34.03
15:03:45,10.281014,103.62,34.03
15:03:45,10.268214,103.62,34.03
15:03:45,10.269494,103.62,34.03
15:03:45,10.337336,103.62,34.03
15:03:46,10.261814,103.77,34.05
15:03:46,10.237494,103.77,34.05
15:03:46,10.228534,103.77,34.05
15:03:46,10.215734,103.77,34.05
15:03:47,10.214454,103.88,34.03
15:03:47,10.260534,103.88,34.03
15:03:47,10.348856,103.88,34.03
15:03:47,10.475577000000001,103.88,34.03
15:03:48,10.60742,103.97,34.03
15:03:48,10.711102,103.97,34.03
15:03:48,10.769982,103.97,34.03
15:03:48,10.840384,103.97,34.03
15:03:49,10.855744,104.03,34.03
15:03:49,10.825024,104.03,34.03
15:03:49,10.776382,104.03,34.03
15:03:49,10.722622,104.03,34.03
15:03:50,10.681662,104.07,34.03
15:03:50,10.659901,104.07,34.03
15:03:50,10.631741,104.07,34.03
15:03:50,10.6087,104.07,34.03
15:03:51,10.562619,104.08,34.05
15:03:51,10.566460000000001,104.08,34.05
15:03:51,10.60998,104.08,34.05
15:03:51,10.679101,104.08,34.05
15:03:52,10.752061999999999,104.12,34.05
15:03:52,10.846784,104.12,34.05
15:03:52,10.904385000000001,104.12,34.05
15:03:52,10.914625,104.12,34.05
15:03:53,10.899264,104.15,34.03
15:03:53,10.864704,104.15,34.03
15:03:53,10.816063,104.15,34.03
15:03:53,10.773823,104.15,34.03
15:03:54,10.739262,104.13,34.03
15:03:54,10.682941,104.13,34.03
15:03:54,10.668861,104.13,34.03
15:03:54,10.638141000000001,104.13,34.03
15:03:55,10.62022,104.15,34.03
15:03:55,10.599739999999999,104.15,34.03
15:03:55,10.60614,104.15,34.03
15:03:55,10.638141000000001,104.15,34.03
15:03:56,10.689342,104.13,34.0
15:03:56,10.741822,104.13,34.0
15:03:56,10.780223,104.13,34.0
15:03:56,10.810944000000001,104.13,34.0
15:03:57,10.818624,104.12,34.03
15:03:57,10.801983,104.12,34.03
15:03:57,10.785343,104.12,34.03
15:03:57,10.757182,104.12,34.03
15:03:58,10.729022,104.1,34.0
15:03:58,10.704701,104.1,34.0
15:03:58,10.680381,104.1,34.0
15:03:58,10.66118,104.1,34.0
15:03:59,10.636861,104.1,34.03
15:03:59,10.62918,104.1,34.03
15:03:59,10.61638,104.1,34.03
15:03:59,10.60102,104.1,34.03
15:04:00,10.59334,104.08,34.03
15:04:00,10.583099,104.08,34.03
15:04:00,10.575419,104.08,34.03
15:04:00,10.569019,104.08,34.03
15:04:01,10.557499,104.15,34.03
15:04:01,10.549819,104.15,34.03
15:04:01,10.544699000000001,104.15,34.03
15:04:01,10.538299,104.15,34.03
15:04:02,10.540859,104.2,34.0
15:04:02,10.56006,104.2,34.0
15:04:02,10.59334,104.2,34.0
15:04:02,10.635580000000001,104.2,34.0
15:04:03,10.667581,104.18,34.0
15:04:03,10.690621,104.18,34.0
15:04:03,10.700861999999999,104.18,34.0
15:04:03,10.707262,104.18,34.0
15:04:04,10.697021000000001,104.12,34.0
15:04:04,10.688062,104.12,34.0
15:04:04,10.684221,104.12,34.0
15:04:04,10.662461,104.12,34.0
15:04:05,10.64198,104.0,34.03
15:04:05,10.631741,104.0,34.03
15:04:05,10.6151,104.0,34.03
15:04:05,10.603580000000001,104.0,34.03
15:04:06,10.598460000000001,103.8,34.0
15:04:06,10.583099,103.8,34.0
15:04:06,10.57414,103.8,34.0
15:04:06,10.566460000000001,103.8,34.0
15:04:07,10.558779,103.63,34.0
15:04:07,10.554939,103.63,34.0
15:04:07,10.544699000000001,103.63,34.0
15:04:07,10.539578,103.63,34.0
15:04:08,10.529339,103.43,34.03
15:04:08,10.529339,103.43,34.03
15:04:08,10.522939,103.43,34.03
15:04:08,10.524219,103.43,34.03
15:04:09,10.513978,103.15,34.0
15:04:09,10.512698,103.15,34.0
15:04:09,10.507578,103.15,34.0
15:04:09,10.513978,103.15,34.0
15:04:10,10.534459,102.9,34.0
15:04:10,10.56006,102.9,34.0
15:04:10,10.577979,102.9,34.0
15:04:10,10.589499,102.9,34.0
15:04:11,10.59206,102.72,33.99
15:04:11,10.59206,102.72,33.99
15:04:11,10.58054,102.72,33.99
15:04:11,10.570299,102.72,33.99
15:04:12,10.558779,102.5,34.03
15:04:12,10.548539,102.5,34.03
15:04:12,10.543419,102.5,34.03
15:04:12,10.530619,102.5,34.03
15:04:13,10.525497999999999,102.33,34.0
15:04:13,10.517818,102.33,34.0
15:04:13,10.512698,102.33,34.0
15:04:13,10.506298,102.33,34.0
15:04:14,10.506298,102.18,34.03
15:04:14,10.497338000000001,102.18,34.03
15:04:14,10.494778,102.18,34.03
15:04:14,10.488377999999999,102.18,34.03
15:04:15,10.487098,102.07,33.99
15:04:15,10.503738,102.07,33.99
15:04:15,10.543419,102.07,33.99
15:04:15,10.61638,102.07,33.99
15:04:16,10.693181,101.97,34.0
15:04:16,10.750782000000001,101.97,34.0
15:04:16,10.767422999999999,101.97,34.0
15:04:16,10.766143,101.97,34.0
15:04:17,10.763582000000001,101.87,34.03
15:04:17,10.754622,101.87,34.03
15:04:17,10.737982,101.87,34.03
15:04:17,10.718781,101.87,34.03
15:04:18,10.704701,101.77,34.0
15:04:18,10.691901,101.77,34.0
15:04:18,10.677821,101.77,34.0
15:04:18,10.717502,101.77,34.0
15:04:19,10.823744,101.67,34.0
15:04:19,10.953026,101.67,34.0
15:04:19,11.067508,101.67,34.0
15:04:19,11.131509,101.67,34.0
15:04:20,11.131509,101.57,34.0
15:04:20,11.098228,101.57,34.0
15:04:20,11.045747,101.57,34.0
15:04:20,10.991986,101.57,34.0
15:04:21,10.939506,101.47,34.0
15:04:21,10.903665,101.47,34.0
15:04:21,10.871663999999999,101.47,34.0
15:04:21,10.840944,101.47,34.0
15:04:22,10.810224,101.38,34.0
15:04:22,10.792303,101.38,34.0
15:04:22,10.775661999999999,101.38,34.0
15:04:22,10.764142999999999,101.38,34.0
15:04:23,10.753902,101.3,34.03
15:04:23,10.774383,101.3,34.03
15:04:23,10.785903,101.3,34.03
15:04:23,10.773103,101.3,34.03
15:04:24,10.759023,101.22,34.03
15:04:24,10.720622,101.22,34.03
15:04:24,10.719342,101.22,34.03
15:04:24,10.706542,101.22,34.03
15:04:25,10.706542,101.15,34.03
15:04:25,10.702702,101.15,34.03
15:04:25,10.687342,101.15,34.03
15:04:25,10.687342,101.15,34.03
15:04:26,10.683501,101.08,34.03
15:04:26,10.682221,101.08,34.03
15:04:26,10.671981,101.08,34.03
15:04:26,10.661741000000001,101.08,34.03
15:04:27,10.642541,101.03,34.03
15:04:27,10.63998,101.03,34.03
15:04:27,10.677100999999999,101.03,34.03
15:04:27,10.680942,101.03,34.03
15:04:28,10.678381,100.97,34.0
15:04:28,10.673262,100.97,34.0
15:04:28,10.670701,100.97,34.0
15:04:28,10.661741000000001,100.97,34.0
15:04:29,10.657900999999999,100.88,34.0
15:04:29,10.6387,100.88,34.0
15:04:29,10.623341,100.88,34.0
15:04:29,10.61438,100.88,34.0
15:04:30,10.574699,100.82,34.03
15:04:30,10.56446,100.82,34.03
15:04:30,10.559339999999999,100.82,34.03
15:04:30,10.559339999999999,100.82,34.03
15:04:31,10.552939,100.77,34.0
15:04:31,10.542699,100.77,34.0
15:04:31,10.542699,100.77,34.0
15:04:31,10.540139,100.77,34.0
15:04:32,10.532459,100.73,34.0
15:04:32,10.528619,100.73,34.0
15:04:32,10.59262,100.73,34.0
15:04:32,10.60286,100.73,34.0
15:04:33,10.58494,100.77,34.0
15:04:33,10.588778999999999,100.77,34.0
15:04:33,10.60414,100.77,34.0
15:04:33,10.622061,100.77,34.0
15:04:34,10.655341,100.95,34.0
15:04:34,10.756461999999999,100.95,34.0
15:04:34,10.808944,100.95,34.0
15:04:34,10.867825,100.95,34.0
15:04:35,10.869104,101.08,33.99
15:04:35,10.920305,101.08,33.99
15:04:35,10.888305,101.08,33.99
15:04:35,10.944626,101.08,33.99
15:04:36,10.980466,101.23,34.03
15:04:36,11.098228,101.23,34.03
15:04:36,11.222389999999999,101.23,34.03
15:04:36,11.26335,101.23,34.03
15:04:37,11.306871000000001,101.4,34.0
15:04:37,11.393913000000001,101.4,34.0
15:04:37,11.552635,101.4,34.0
15:04:37,11.700275,101.4,34.0
15:04:38,11.798836999999999,101.55,34.0
15:04:38,11.846197,101.55,34.0
15:04:38,11.803957,101.55,34.0
15:04:38,11.673395,101.55,34.0
15:04:39,11.592753,101.7,33.99
15:04:39,11.458350999999999,101.7,33.99
15:04:39,11.349549,101.7,33.99
15:04:39,11.259948,101.7,33.99
15:04:40,11.176746000000001,101.87,33.99
15:04:40,11.146027,101.87,33.99
15:04:40,11.231788,101.87,33.99
15:04:40,11.376430000000001,101.87,33.99
15:04:41,11.496752,102.0,34.0
15:04:41,11.577394,102.0,34.0
15:04:41,11.600433,102.0,34.0
15:04:41,11.555633,102.0,34.0
15:04:42,11.476272,102.12,34.0
15:04:42,11.37899,102.12,34.0
15:04:42,11.274028,102.12,34.0
15:04:42,11.201067,102.12,34.0
15:04:43,11.139627,102.2,33.99
15:04:43,11.090985,102.2,33.99
15:04:43,11.050025,102.2,33.99
15:04:43,10.992424,102.2,33.99
15:04:44,10.947623,102.27,34.0
15:04:44,10.917746000000001,102.27,34.0
15:04:44,10.907505,102.27,34.0
15:04:44,10.880625,102.27,34.0
15:04:45,10.867825,102.32,34.0
15:04:45,10.860145,102.32,34.0
15:04:45,10.857584,102.32,34.0
15:04:45,10.855024,102.32,34.0
15:04:46,10.848624000000001,102.27,33.99
15:04:46,10.830703999999999,102.27,33.99
15:04:46,10.816624000000001,102.27,33.99
15:04:46,10.816624000000001,102.27,33.99
15:04:47,10.830703999999999,102.25,34.0
15:04:47,10.823024,102.25,34.0
15:04:47,10.797423,102.25,34.0
15:04:47,10.773103,102.25,34.0
15:04:48,10.793583,102.28,34.03
15:04:48,10.796144,102.28,34.03
15:04:48,10.785903,102.28,34.03
15:04:48,10.783342999999999,102.28,34.03
15:04:49,10.782063,102.33,33.99
15:04:49,10.787183,102.33,33.99
15:04:49,10.761582,102.33,33.99
15:04:49,10.741102,102.33,33.99
15:04:50,10.738543,102.42,34.0
15:04:50,10.739822,102.42,34.0
15:04:50,10.720622,102.42,34.0
15:04:50,10.705262,102.42,34.0
15:04:51,10.701422,102.52,33.99
15:04:51,10.703981,102.52,33.99
15:04:51,10.700142,102.52,33.99
15:04:51,10.705262,102.52,33.99
15:04:52,10.725742,102.63,33.99
15:04:52,10.805102999999999,102.63,33.99
15:04:52,10.922865,102.63,33.99
15:04:52,11.015027,102.63,33.99
15:04:53,11.094388,102.73,33.99
15:04:53,11.136629,102.73,33.99
15:04:53,11.144309,102.73,33.99
15:04:53,11.123828999999999,102.73,33.99
15:04:54,11.089267999999999,102.88,34.0
15:04:54,11.055987,102.88,34.0
15:04:54,11.025267,102.88,34.0
15:04:54,10.966386,102.88,34.0
15:04:55,10.972786,103.0,33.99
15:04:55,10.958706,103.0,33.99
15:04:55,10.931826,103.0,33.99
15:04:55,10.881905,103.0,33.99
15:04:56,10.789743,103.15,33.99
15:04:56,10.756461999999999,103.15,33.99
15:04:56,10.774383,103.15,33.99
15:04:56,10.794863000000001,103.15,33.99
15:04:57,10.803823,103.28,33.99
15:04:57,10.826863000000001,103.28,33.99
15:04:57,10.762862,103.28,33.99
15:04:57,10.738543,103.28,33.99
15:04:58,10.716782,103.4,33.99
15:04:58,10.686062,103.4,33.99
15:04:58,10.724463,103.4,33.99
15:04:58,10.762862,103.4,33.99
15:04:59,10.752623,103.48,33.99
15:04:59,10.742382000000001,103.48,33.99
15:04:59,10.671981,103.48,33.99
15:04:59,10.682221,103.48,33.99
15:05:00,10.718062,103.57,33.99
15:05:00,10.788463,103.57,33.99
15:05:00,10.890864,103.57,33.99
15:05:00,11.017586999999999,103.57,33.99
15:05:01,11.094388,103.55,33.99
15:05:01,11.232631,103.55,33.99
15:05:01,11.267191,103.55,33.99
15:05:01,11.283832,103.55,33.99
15:05:02,11.291511999999999,103.55,34.0
15:05:02,11.19679,103.55,34.0
15:05:02,11.081588,103.55,34.0
15:05:02,10.998386,103.55,34.0
15:05:03,10.949746000000001,103.58,34.0
15:05:03,10.919025,103.58,34.0
15:05:03,10.884464,103.58,34.0
15:05:03,10.837104,103.58,34.0
15:05:04,10.810224,103.65,34.0
15:05:04,10.785903,103.65,34.0
15:05:04,10.770543,103.65,34.0
15:05:04,10.741102,103.65,34.0
15:05:05,10.721902,103.78,34.0
15:05:05,10.724463,103.78,34.0
15:05:05,10.687342,103.78,34.0
15:05:05,10.666862,103.78,34.0
15:05:06,10.660461,103.98,34.0
15:05:06,10.647661,103.98,34.0
15:05:06,10.643821,103.98,34.0
15:05:06,10.628461,103.98,34.0
15:05:07,10.61694,104.13,34.0
15:05:07,10.60798,104.13,34.0
15:05:07,10.595180000000001,104.13,34.0
15:05:07,10.57854,104.13,34.0
15:05:08,10.569579,104.32,34.0
15:05:08,10.559339999999999,104.32,34.0
15:05:08,10.550379,104.32,34.0
15:05:08,10.541419,104.32,34.0
15:05:09,10.533739,104.6,34.03
15:05:09,10.524778,104.6,34.03
15:05:09,10.514539,104.6,34.03
15:05:09,10.508139,104.6,34.03
15:05:10,10.497898,104.85,34.0
15:05:10,10.494059,104.85,34.0
15:05:10,10.482538,104.85,34.0
15:05:10,10.477418,104.85,34.0
15:05:11,10.472298,105.02,34.0
15:05:11,10.467177000000001,105.02,34.0
15:05:11,10.462777,105.02,34.0
15:05:11,10.456377,105.02,34.0
15:05:12,10.458938,105.22,34.03
15:05:12,10.444858,105.22,34.03
15:05:12,10.439737,105.22,34.03
15:05:12,10.432057,105.22,34.03
15:05:13,10.428217,105.37,34.0
15:05:13,10.424377,105.37,34.0
15:05:13,10.419257,105.37,34.0
15:05:13,10.416697000000001,105.37,34.0
15:05:14,10.411577000000001,105.43,34.03
15:05:14,10.407737,105.43,34.03
15:05:14,10.400057,105.43,34.03
15:05:14,10.401337,105.43,34.03
15:05:15,10.394936999999999,105.47,34.0
15:05:15,10.385977,105.47,34.0
15:05:15,10.377016000000001,105.47,34.0
15:05:15,10.374456,105.47,34.0
15:05:16,10.370616,105.48,34.0
15:05:16,10.366776,105.48,34.0
15:05:16,10.365496,105.48,34.0
15:05:16,10.369336,105.48,34.0
15:05:17,10.369336,105.43,34.03
15:05:17,10.373177,105.43,34.03
15:05:17,10.377016000000001,105.43,34.03
15:05:17,10.374456,105.43,34.03
15:05:18,10.365496,105.42,34.03
15:05:18,10.357816,105.42,34.03
15:05:18,10.353976,105.42,34.03
15:05:18,10.355255999999999,105.42,34.03
15:05:19,10.393657000000001,105.43,34.03
15:05:19,10.469177,105.43,34.03
15:05:19,10.565178999999999,105.43,34.03
15:05:19,10.65478,105.43,34.03
15:05:20,10.730302,105.48,34.03
15:05:20,10.753343,105.48,34.03
15:05:20,10.758462,105.48,34.03
15:05:20,10.744382,105.48,34.03
15:05:21,10.722622,105.57,34.0
15:05:21,10.686781,105.57,34.0
15:05:21,10.649661,105.57,34.0
15:05:21,10.6215,105.57,34.0
15:05:22,10.597178999999999,105.65,34.03
15:05:22,10.57286,105.65,34.03
15:05:22,10.561339,105.65,34.03
15:05:22,10.565178999999999,105.65,34.03
15:05:23,10.579260000000001,105.73,34.0
15:05:23,10.58694,105.73,34.0
15:05:23,10.598460000000001,105.73,34.0
15:05:23,10.61382,105.73,34.0
15:05:24,10.65478,105.83,34.03
15:05:24,10.649661,105.83,34.03
15:05:24,10.656061,105.83,34.03
15:05:24,10.644541,105.83,34.03
15:05:25,10.62278,105.92,34.03
15:05:25,10.62022,105.92,34.03
15:05:25,10.603580000000001,105.92,34.03
15:05:25,10.5959,105.92,34.03
15:05:26,10.579260000000001,106.02,34.03
15:05:26,10.571579,106.02,34.03
15:05:26,10.577979,106.02,34.03
15:05:26,10.60998,106.02,34.03
15:05:27,10.711102,106.1,34.03
15:05:27,10.827583,106.1,34.03
15:05:27,10.935105,106.1,34.03
15:05:27,10.987586,106.1,34.03
15:05:28,11.038067,106.15,34.03
15:05:28,11.040627,106.15,34.03
15:05:28,11.012466,106.15,34.03
15:05:28,10.957426,106.15,34.03
15:05:29,10.898545,106.2,34.0
15:05:29,10.834544000000001,106.2,34.0
15:05:29,10.789743,106.2,34.0
15:05:29,10.748782,106.2,34.0
15:05:30,10.710382000000001,106.22,34.0
15:05:30,10.691181,106.22,34.0
15:05:30,10.666862,106.22,34.0
15:05:30,10.642541,106.22,34.0
15:05:31,10.628461,106.22,34.03
15:05:31,10.622061,106.22,34.03
15:05:31,10.641261,106.22,34.03
15:05:31,10.696301,106.22,34.03
15:05:32,10.789743,106.22,34.0
15:05:32,10.878064,106.22,34.0
15:05:32,10.958706,106.22,34.0
15:05:32,11.012466,106.22,34.0
15:05:33,11.025267,106.2,34.03
15:05:33,11.022707,106.2,34.03
15:05:33,10.981747,106.2,34.03
15:05:33,10.924146,106.2,34.03
15:05:34,10.880625,106.15,34.0
15:05:34,10.858864,106.15,34.0
15:05:34,10.927985000000001,106.15,34.0
15:05:34,11.071347,106.15,34.0
15:05:35,11.22495,106.1,34.0
15:05:35,11.363192999999999,106.1,34.0
15:05:35,11.423353,106.1,34.0
15:05:35,11.432314,106.1,34.0
15:05:36,11.393913000000001,106.05,34.03
15:05:36,11.351672,106.05,34.03
15:05:36,11.271030999999999,106.05,34.03
15:05:36,11.194230000000001,106.05,34.03
15:05:37,11.132789,106.02,34.03
15:05:37,11.082868,106.02,34.03
15:05:37,11.036787,106.02,34.03
15:05:37,11.002227,106.02,34.03
15:05:38,10.976626,105.98,34.03
15:05:38,10.968946,105.98,34.03
15:05:38,10.985586,105.98,34.03
15:05:38,11.002227,105.98,34.03
15:05:39,10.995827,105.92,34.0
15:05:39,10.984306,105.92,34.0
15:05:39,10.983027,105.92,34.0
15:05:39,10.952306,105.92,34.0
15:05:40,10.935665,105.78,34.0
15:05:40,10.919025,105.78,34.0
15:05:40,10.930546000000001,105.78,34.0
15:05:40,10.924146,105.78,34.0
15:05:41,10.908785,105.63,34.05
15:05:41,10.935665,105.63,34.05
15:05:41,10.989427000000001,105.63,34.05
15:05:41,10.991986,105.63,34.05
15:05:42,11.003507,105.45,34.03
15:05:42,10.994547,105.45,34.03
15:05:42,10.968946,105.45,34.03
15:05:42,10.954865,105.45,34.03
15:05:43,11.012466,105.33,34.0
15:05:43,11.117429,105.33,34.0
15:05:43,11.22879,105.33,34.0
15:05:43,11.343992,105.33,34.0
15:05:44,11.392632,105.22,34.03
15:05:44,11.414392999999999,105.22,34.03
15:05:44,11.349113000000001,105.22,34.03
15:05:44,11.273591,105.22,34.03
15:05:45,11.21599,105.15,34.05
15:05:45,11.143028999999999,105.15,34.05
15:05:45,11.080308,105.15,34.05
15:05:45,11.022707,105.15,34.05
15:05:46,10.984306,105.2,34.0
15:05:46,10.974066,105.2,34.0
15:05:46,10.961266,105.2,34.0
15:05:46,10.938226,105.2,34.0
15:05:47,10.916464999999999,105.27,34.0
15:05:47,10.897264,105.27,34.0
15:05:47,10.879344999999999,105.27,34.0
15:05:47,10.863984,105.27,34.0
15:05:48,10.844783999999999,105.18,34.05
15:05:48,10.829424000000001,105.18,34.05
15:05:48,10.816624000000001,105.18,34.05
15:05:48,10.806383,105.18,34.05
15:05:49,10.797423,105.13,34.0
15:05:49,10.793583,105.13,34.0
15:05:49,10.802544000000001,105.13,34.0
15:05:49,10.805102999999999,105.13,34.0
15:05:50,10.810224,105.1,34.05
15:05:50,10.814063,105.1,34.05
15:05:50,10.808944,105.1,34.05
15:05:50,10.807663,105.1,34.05
15:05:51,10.793583,105.08,34.0
15:05:51,10.787183,105.08,34.0
15:05:51,10.774383,105.08,34.0
15:05:51,10.761582,105.08,34.0
15:05:52,10.752623,105.03,34.03
15:05:52,10.750062,105.03,34.03
15:05:52,10.743661999999999,105.03,34.03
15:05:52,10.765423,105.03,34.03
15:05:53,10.797423,105.0,34.03
15:05:53,10.840944,105.0,34.03
15:05:53,10.874225,105.0,34.03
15:05:53,10.890864,105.0,34.03
15:05:54,10.890864,104.98,34.0
15:05:54,10.884464,104.98,34.0
15:05:54,10.867825,104.98,34.0
15:05:54,10.848624000000001,104.98,34.0
15:05:55,10.828144,104.98,34.05
15:05:55,10.821744,104.98,34.05
15:05:55,10.810224,104.98,34.05
15:05:55,10.798703,104.98,34.05
15:05:56,10.793583,104.97,34.0
15:05:56,10.785903,104.97,34.0
15:05:56,10.778222999999999,104.97,34.0
15:05:56,10.774383,104.97,34.0
15:05:57,10.776943,104.95,34.03
15:05:57,10.780783,104.95,34.03
15:05:57,10.785903,104.95,34.03
15:05:57,10.789743,104.95,34.03
15:05:58,10.780783,104.93,34.05
15:05:58,10.785903,104.93,34.05
15:05:58,10.775661999999999,104.93,34.05
15:05:58,10.773103,104.93,34.05
15:05:59,10.765423,104.9,34.0
15:05:59,10.759023,104.9,34.0
15:05:59,10.753902,104.9,34.0
15:05:59,10.742382000000001,104.9,34.0
15:06:00,10.733422000000001,104.73,34.0
15:06:00,10.728302000000001,104.73,34.0
15:06:00,10.721902,104.73,34.0
15:06:00,10.716782,104.73,34.0
15:06:01,10.729582,104.58,34.03
15:06:01,10.750062,104.58,34.03
15:06:01,10.791023,104.58,34.03
15:06:01,10.825583,104.58,34.03
15:06:02,10.846064,104.45,34.03
15:06:02,10.878064,104.45,34.03
15:06:02,10.931826,104.45,34.03
15:06:02,11.006066,104.45,34.03
15:06:03,11.061108,104.35,34.05
15:06:03,11.091828,104.35,34.05
15:06:03,11.090548,104.35,34.05
15:06:03,11.077747,104.35,34.05
15:06:04,11.044467,104.28,34.03
15:06:04,11.022707,104.28,34.03
15:06:04,11.003507,104.28,34.03
15:06:04,10.974066,104.28,34.03
15:06:05,10.945905999999999,104.22,34.03
15:06:05,10.921585,104.22,34.03
15:06:05,10.901105000000001,104.22,34.03
15:06:05,10.889585,104.22,34.03
15:06:06,10.879344999999999,104.15,34.0
15:06:06,10.872945,104.15,34.0
15:06:06,10.857584,104.15,34.0
15:06:06,10.849903999999999,104.15,34.0
15:06:07,10.848624000000001,104.12,34.03
15:06:07,10.840944,104.12,34.03
15:06:07,10.833263,104.12,34.03
15:06:07,10.826863000000001,104.12,34.03
15:06:08,10.821744,104.07,34.03
15:06:08,10.808944,104.07,34.03
15:06:08,10.810224,104.07,34.03
15:06:08,10.803823,104.07,34.03
15:06:09,10.799983000000001,104.02,34.03
15:06:09,10.793583,104.02,34.03
15:06:09,10.789743,104.02,34.03
15:06:09,10.782063,104.02,34.03
15:06:10,10.783342999999999,103.95,34.03
15:06:10,10.789743,103.95,34.03
15:06:10,10.783342999999999,103.95,34.03
15:06:10,10.788463,103.95,34.03
15:06:11,10.787183,103.9,34.03
15:06:11,10.783342999999999,103.9,34.03
15:06:11,10.778222999999999,103.9,34.03
15:06:11,10.767982,103.9,34.03
15:06:12,10.764142999999999,103.83,34.05
15:06:12,10.755182000000001,103.83,34.05
15:06:12,10.755182000000001,103.83,34.05
15:06:12,10.747502,103.83,34.05
15:06:13,10.742382000000001,103.78,34.03
15:06:13,10.738543,103.78,34.03
15:06:13,10.734702,103.78,34.03
15:06:13,10.725742,103.78,34.03
15:06:14,10.719342,103.78,34.03
15:06:14,10.725742,103.78,34.03
15:06:14,10.720622,103.78,34.03
15:06:14,10.715502,103.78,34.03
15:06:15,10.710382000000001,103.78,34.0
15:06:15,10.707822,103.78,34.0
15:06:15,10.705262,103.78,34.0
15:06:15,10.715502,103.78,34.0
15:06:16,10.720622,103.75,34.03
15:06:16,10.727022,103.75,34.03
15:06:16,10.728302000000001,103.75,34.03
15:06:16,10.725742,103.75,34.03
15:06:17,10.724463,103.78,34.05
15:06:17,10.719342,103.78,34.05
15:06:17,10.710382000000001,103.78,34.05
15:06:17,10.703981,103.78,34.05
15:06:18,10.703981,103.77,34.03
15:06:18,10.693742,103.77,34.03
15:06:18,10.687342,103.77,34.03
15:06:18,10.678381,103.77,34.03
15:06:19,10.674541,103.72,34.05
15:06:19,10.666862,103.72,34.05
15:06:19,10.661741000000001,103.72,34.05
15:06:19,10.656621000000001,103.72,34.05
15:06:20,10.650221,103.63,34.05
15:06:20,10.656621000000001,103.63,34.05
15:06:20,10.647661,103.63,34.05
15:06:20,10.63998,103.63,34.05
15:06:21,10.637421,103.53,34.05
15:06:21,10.636141,103.53,34.05
15:06:21,10.634861,103.53,34.05
15:06:21,10.6387,103.53,34.05
15:06:22,10.645100999999999,103.42,34.05
15:06:22,10.650221,103.42,34.05
15:06:22,10.652781,103.42,34.05
15:06:22,10.657900999999999,103.42,34.05
15:06:23,10.655341,103.32,34.03
15:06:23,10.641261,103.32,34.03
15:06:23,10.64638,103.32,34.03
15:06:23,10.636141,103.32,34.03
15:06:24,10.629741000000001,103.2,34.03
15:06:24,10.62078,103.2,34.03
15:06:24,10.631021,103.2,34.03
15:06:24,10.61694,103.2,34.03
15:06:25,10.61182,103.08,34.05
15:06:25,10.60414,103.08,34.05
15:06:25,10.5875,103.08,34.05
15:06:25,10.588778999999999,103.08,34.05
15:06:26,10.586219999999999,102.93,34.03
15:06:26,10.586219999999999,102.93,34.03
15:06:26,10.582379,102.93,34.03
15:06:26,10.57726,102.93,34.03
15:06:27,10.574699,102.78,34.05
15:06:27,10.57342,102.78,34.05
15:06:27,10.568299,102.78,34.05
15:06:27,10.568299,102.78,34.05
15:06:28,10.560619,102.65,34.05
15:06:28,10.563179,102.65,34.05
15:06:28,10.55166,102.65,34.05
15:06:28,10.552939,102.65,34.05
15:06:29,10.55166,102.52,34.05
15:06:29,10.547819,102.52,34.05
15:06:29,10.546539,102.52,34.05
15:06:29,10.542699,102.52,34.05
15:06:30,10.540139,102.4,34.03
15:06:30,10.537579,102.4,34.03
15:06:30,10.537579,102.4,34.03
15:06:30,10.533739,102.4,34.03
15:06:31,10.526059,102.28,34.03
15:06:31,10.527339,102.28,34.03
15:06:31,10.519658999999999,102.28,34.03
15:06:31,10.519658999999999,102.28,34.03
15:06:32,10.514539,102.18,34.03
15:06:32,10.509418,102.18,34.03
15:06:32,10.509418,102.18,34.03
15:06:32,10.511978,102.18,34.03
15:06:33,10.505578,102.1,34.05
15:06:33,10.500459,102.1,34.05
15:06:33,10.497898,102.1,34.05
15:06:33,10.492778,102.1,34.05
15:06:34,10.490217999999999,102.03,34.05
15:06:34,10.504298,102.03,34.05
15:06:34,10.519658999999999,102.03,34.05
15:06:34,10.554219,102.03,34.05
15:06:35,10.590060000000001,101.98,34.07
15:06:35,10.6195,101.98,34.07
15:06:35,10.636141,101.98,34.07
15:06:35,10.641261,101.98,34.07
15:06:36,10.643821,101.93,34.03
15:06:36,10.631021,101.93,34.03
15:06:36,10.618219999999999,101.93,34.03
15:06:36,10.60286,101.93,34.03
15:06:37,10.58494,101.83,34.03
15:06:37,10.574699,101.83,34.03
15:06:37,10.561899,101.83,34.03
15:06:37,10.56574,101.83,34.03
15:06:38,10.58494,101.72,34.05
15:06:38,10.634861,101.72,34.05
15:06:38,10.673262,101.72,34.05
15:06:38,10.724463,101.72,34.05
15:06:39,10.741102,101.6,34.05
15:06:39,10.748782,101.6,34.05
15:06:39,10.738543,101.6,34.05
15:06:39,10.714222,101.6,34.05
15:06:40,10.693742,101.5,34.05
15:06:40,10.673262,101.5,34.05
15:06:40,10.650221,101.5,34.05
15:06:40,10.631021,101.5,34.05
15:06:41,10.615661,101.42,34.05
15:06:41,10.6067,101.42,34.05
15:06:41,10.590060000000001,101.42,34.05
15:06:41,10.58366,101.42,34.05
15:06:42,10.57086,101.37,34.05
15:06:42,10.569579,101.37,34.05
15:06:42,10.559339999999999,101.37,34.05
15:06:42,10.561899,101.37,34.05
15:06:43,10.554219,101.27,34.05
15:06:43,10.57086,101.27,34.05
15:06:43,10.5811,101.27,34.05
15:06:43,10.59646,101.27,34.05
15:06:44,10.60158,101.18,34.05
15:06:44,10.60286,101.18,34.05
15:06:44,10.6067,101.18,34.05
15:06:44,10.58494,101.18,34.05
15:06:45,10.569579,101.1,34.03
15:06:45,10.555499000000001,101.1,34.03
15:06:45,10.554219,101.1,34.03
15:06:45,10.538859,101.1,34.03
15:06:46,10.524778,101.02,34.05
15:06:46,10.522219,101.02,34.05
15:06:46,10.511978,101.02,34.05
15:06:46,10.503017999999999,101.02,34.05
15:06:47,10.497898,100.92,34.05
15:06:47,10.494059,100.92,34.05
15:06:47,10.488938000000001,100.92,34.05
15:06:47,10.485097999999999,100.92,34.05
15:06:48,10.478698,100.97,34.05
15:06:48,10.473577,100.97,34.05
15:06:48,10.495338,100.97,34.05
15:06:48,10.526059,100.97,34.05
15:06:49,10.549099,100.97,34.07
15:06:49,10.5875,100.97,34.07
15:06:49,10.60414,100.97,34.07
15:06:49,10.61182,100.97,34.07
15:06:50,10.60542,100.93,34.07
15:06:50,10.595180000000001,100.93,34.07
15:06:50,10.574699,100.93,34.07
15:06:50,10.563179,100.93,34.07
15:06:51,10.546539,100.87,34.03
15:06:51,10.533739,100.87,34.03
15:06:51,10.519658999999999,100.87,34.03
15:06:51,10.503017999999999,100.87,34.03
15:06:52,10.494059,100.8,34.05
15:06:52,10.494059,100.8,34.05
15:06:52,10.483818,100.8,34.05
15:06:52,10.472298,100.8,34.05
15:06:53,10.467177000000001,100.73,34.05
15:06:53,10.471738,100.73,34.05
15:06:53,10.467897,100.73,34.05
15:06:53,10.479417999999999,100.73,34.05
15:06:54,10.479417999999999,100.65,34.03
15:06:54,10.481977,100.65,34.03
15:06:54,10.479417999999999,100.65,34.03
15:06:54,10.475577000000001,100.65,34.03
15:06:55,10.478138000000001,100.55,34.03
15:06:55,10.484538,100.55,34.03
15:06:55,10.492218,100.55,34.03
15:06:55,10.493497999999999,100.55,34.03
15:06:56,10.497338000000001,100.47,34.03
15:06:56,10.503738,100.47,34.03
15:06:56,10.501178,100.47,34.03
15:06:56,10.492218,100.47,34.03
15:06:57,10.480698,100.42,34.05
15:06:57,10.479417999999999,100.42,34.05
15:06:57,10.473018,100.42,34.05
15:06:57,10.465338000000001,100.42,34.05
15:06:58,10.461497,100.38,34.03
15:06:58,10.457658,100.38,34.03
15:06:58,10.455097,100.38,34.03
15:06:58,10.449977,100.38,34.03
15:06:59,10.442297,100.38,34.05
15:06:59,10.434617,100.38,34.05
15:06:59,10.429497,100.38,34.05
15:06:59,10.429497,100.38,34.05
15:07:00,10.425657000000001,100.52,34.05
15:07:00,10.425657000000001,100.52,34.05
15:07:00,10.419257,100.52,34.05
15:07:00,10.419257,100.52,34.05
15:07:01,10.415417,100.65,34.05
15:07:01,10.415417,100.65,34.05
15:07:01,10.415417,100.65,34.05
15:07:01,10.410296,100.65,34.05
15:07:02,10.407737,100.75,34.07
15:07:02,10.403896000000001,100.75,34.07
15:07:02,10.400057,100.75,34.07
15:07:02,10.394936999999999,100.75,34.07
15:07:03,10.387257,100.82,34.03
15:07:03,10.385977,100.82,34.03
15:07:03,10.385977,100.82,34.03
15:07:03,10.393657000000001,100.82,34.03
15:07:04,10.417977,100.85,34.05
15:07:04,10.446137,100.85,34.05
15:07:04,10.497338000000001,100.85,34.05
15:07:04,10.519098,100.85,34.05
15:07:05,10.525497999999999,100.85,34.0
15:07:05,10.524219,100.85,34.0
15:07:05,10.522939,100.85,34.0
15:07:05,10.510139,100.85,34.0
15:07:06,10.499898,100.85,34.03
15:07:06,10.487098,100.85,34.03
15:07:06,10.470458,100.85,34.03
15:07:06,10.457658,100.85,34.03
15:07:07,10.442297,100.85,34.05
15:07:07,10.435897,100.85,34.05
15:07:07,10.428217,100.85,34.05
15:07:07,10.419257,100.85,34.05
15:07:08,10.411577000000001,100.87,34.05
15:07:08,10.410296,100.87,34.05
15:07:08,10.425657000000001,100.87,34.05
15:07:08,10.479417999999999,100.87,34.05
15:07:09,10.565178999999999,100.9,34.05
15:07:09,10.65478,100.9,34.05
15:07:09,10.717502,100.9,34.05
15:07:09,10.764861999999999,100.9,34.05
15:07:10,10.781503,100.98,34.03
15:07:10,10.777662,100.98,34.03
15:07:10,10.777662,100.98,34.03
15:07:10,10.764861999999999,100.98,34.03
15:07:11,10.741822,101.07,34.05
15:07:11,10.721342,101.07,34.05
15:07:11,10.691901,101.07,34.05
15:07:11,10.667581,101.07,34.05
15:07:12,10.649661,101.17,34.03
15:07:12,10.649661,101.17,34.03
15:07:12,10.644541,101.17,34.03
15:07:12,10.638141000000001,101.17,34.03
15:07:13,10.638141000000001,101.27,34.03
15:07:13,10.63302,101.27,34.03
15:07:13,10.6279,101.27,34.03
15:07:13,10.611260000000001,101.27,34.03
15:07:14,10.599739999999999,101.4,34.05
15:07:14,10.583099,101.4,34.05
15:07:14,10.563899000000001,101.4,34.05
15:07:14,10.557499,101.4,34.05
15:07:15,10.548539,101.53,34.05
15:07:15,10.58182,101.53,34.05
15:07:15,10.617661,101.53,34.05
15:07:15,10.686781,101.53,34.05
15:07:16,10.761023,101.7,34.05
15:07:16,10.831424,101.7,34.05
15:07:16,10.883904,101.7,34.05
15:07:16,10.900545,101.7,34.05
15:07:17,10.897985,101.87,34.03
15:07:17,10.880063999999999,101.87,34.03
15:07:17,10.848063,101.87,34.03
15:07:17,10.810944000000001,101.87,34.03
15:07:18,10.781503,102.05,34.03
15:07:18,10.753343,102.05,34.03
15:07:18,10.734142,102.05,34.03
15:07:18,10.711102,102.05,34.03
15:07:19,10.695742,102.25,34.05
15:07:19,10.680381,102.25,34.05
15:07:19,10.670141000000001,102.25,34.05
15:07:19,10.650941,102.25,34.05
15:07:20,10.644541,102.48,34.05
15:07:20,10.63302,102.48,34.05
15:07:20,10.62534,102.48,34.05
15:07:20,10.6087,102.48,34.05
15:07:21,10.6087,102.72,34.05
15:07:21,10.60614,102.72,34.05
15:07:21,10.59206,102.72,34.05
15:07:21,10.584379,102.72,34.05
15:07:22,10.576699000000001,102.95,34.05
15:07:22,10.57286,102.95,34.05
15:07:22,10.558779,102.95,34.05
15:07:22,10.554939,102.95,34.05
15:07:23,10.548539,103.17,34.05
15:07:23,10.542139,103.17,34.05
15:07:23,10.534459,103.17,34.05
15:07:23,10.529339,103.17,34.05
15:07:24,10.529339,103.4,34.05
15:07:24,10.522939,103.4,34.05
15:07:24,10.526778,103.4,34.05
15:07:24,10.520378,103.4,34.05
15:07:25,10.513978,103.6,34.05
15:07:25,10.508859,103.6,34.05
15:07:25,10.501178,103.6,34.05
15:07:25,10.499898,103.6,34.05
15:07:26,10.497338000000001,103.77,34.05
15:07:26,10.498617999999999,103.77,34.05
15:07:26,10.493497999999999,103.77,34.05
15:07:26,10.497338000000001,103.77,34.05
15:07:27,10.489658,103.88,34.03
15:07:27,10.484538,103.88,34.03
15:07:27,10.480698,103.88,34.03
15:07:27,10.473018,103.88,34.03
15:07:28,10.466617999999999,103.98,34.05
15:07:28,10.467897,103.98,34.05
15:07:28,10.457658,103.98,34.05
15:07:28,10.453816999999999,103.98,34.05
15:07:29,10.448697,104.05,34.07
15:07:29,10.451258000000001,104.05,34.07
15:07:29,10.451258000000001,104.05,34.07
15:07:29,10.457658,104.05,34.07
15:07:30,10.455097,104.1,34.05
15:07:30,10.455097,104.1,34.05
15:07:30,10.456377,104.1,34.05
15:07:30,10.448697,104.1,34.05
15:07:31,10.441017,104.13,34.05
15:07:31,10.433337,104.13,34.05
15:07:31,10.416697000000001,104.13,34.05
15:07:31,10.411577000000001,104.13,34.05
15:07:32,10.414137,104.07,34.03
15:07:32,10.415417,104.07,34.03
15:07:32,10.401337,104.07,34.03
15:07:32,10.410296,104.07,34.03
15:07:33,10.396216,103.98,34.05
15:07:33,10.393657000000001,103.98,34.05
15:07:33,10.394936999999999,103.98,34.05
15:07:33,10.385977,103.98,34.05
15:07:34,10.388536,103.92,34.05
15:07:34,10.378296,103.92,34.05
15:07:34,10.368056,103.92,34.05
15:07:34,10.361656,103.92,34.05
15:07:35,10.369336,103.83,34.07
15:07:35,10.370616,103.83,34.07
15:07:35,10.380857,103.83,34.07
15:07:35,10.388536,103.83,34.07
15:07:36,10.392377,103.75,34.05
15:07:36,10.397496,103.75,34.05
15:07:36,10.397496,103.75,34.05
15:07:36,10.384696,103.75,34.05
15:07:37,10.379577000000001,103.72,34.03
15:07:37,10.378296,103.72,34.03
15:07:37,10.370616,103.72,34.03
15:07:37,10.369336,103.72,34.03
15:07:38,10.365496,103.7,34.05
15:07:38,10.359096000000001,103.7,34.05
15:07:38,10.351416,103.7,34.05
15:07:38,10.348856,103.7,34.05
15:07:39,10.341175999999999,103.68,34.05
15:07:39,10.343736,103.68,34.05
15:07:39,10.342456,103.68,34.05
15:07:39,10.339895,103.68,34.05
15:07:40,10.337336,103.67,34.03
15:07:40,10.342456,103.67,34.03
15:07:40,10.333495,103.67,34.03
15:07:40,10.327095,103.67,34.03
15:07:41,10.325814999999999,103.65,34.05
15:07:41,10.327095,103.65,34.05
15:07:41,10.318135,103.65,34.05
15:07:41,10.319415,103.65,34.05
15:07:42,10.309175,103.6,34.05
15:07:42,10.313015,103.6,34.05
15:07:42,10.311735,103.6,34.05
15:07:42,10.306614999999999,103.6,34.05
15:07:43,10.306614999999999,103.55,34.05
15:07:43,10.319415,103.55,34.05
15:07:43,10.341175999999999,103.55,34.05
15:07:43,10.369336,103.55,34.05
15:07:44,10.391096000000001,103.48,34.05
15:07:44,10.407737,103.48,34.05
15:07:44,10.425657000000001,103.48,34.05
15:07:44,10.419257,103.48,34.05
15:07:45,10.406457000000001,103.4,34.05
15:07:45,10.402617,103.4,34.05
15:07:45,10.387257,103.4,34.05
15:07:45,10.371896000000001,103.4,34.05
15:07:46,10.366776,103.3,34.05
15:07:46,10.353976,103.3,34.05
15:07:46,10.343736,103.3,34.05
15:07:46,10.339895,103.3,34.05
15:07:47,10.333495,103.18,34.05
15:07:47,10.330935,103.18,34.05
15:07:47,10.324535000000001,103.18,34.05
15:07:47,10.321976,103.18,34.05
15:07:48,10.320694999999999,103.07,34.03
15:07:48,10.320694999999999,103.07,34.03
15:07:48,10.319415,103.07,34.03
15:07:48,10.316855,103.07,34.03
15:07:49,10.315576,102.97,34.07
15:07:49,10.314295,102.97,34.07
15:07:49,10.309175,102.97,34.07
15:07:49,10.309175,102.97,34.07
15:07:50,10.305335000000001,102.88,34.03
15:07:50,10.296375,102.88,34.03
15:07:50,10.296375,102.88,34.03
15:07:50,10.288694,102.88,34.03
15:07:51,10.287415,102.82,34.05
15:07:51,10.288694,102.82,34.05
15:07:51,10.288694,102.82,34.05
15:07:51,10.286135,102.82,34.05
15:07:52,10.281014,102.77,34.03
15:07:52,10.281014,102.77,34.03
15:07:52,10.275894000000001,102.77,34.03
15:07:52,10.277175,102.77,34.03
15:07:53,10.269494,102.73,34.05
15:07:53,10.269494,102.73,34.05
15:07:53,10.269494,102.73,34.05
15:07:53,10.261814,102.73,34.05
15:07:54,10.261814,102.72,34.05
15:07:54,10.261814,102.72,34.05
15:07:54,10.260534,102.72,34.05
15:07:54,10.252854,102.72,34.05
15:07:55,10.249014,102.72,34.05
15:07:55,10.256694,102.72,34.05
15:07:55,10.241334,102.72,34.05
15:07:55,10.242614,102.72,34.05
15:07:56,10.245174,102.73,34.05
15:07:56,10.242614,102.73,34.05
15:07:56,10.238774000000001,102.73,34.05
15:07:56,10.238774000000001,102.73,34.05
15:07:57,10.242614,102.73,34.05
15:07:57,10.245174,102.73,34.05
15:07:57,10.242614,102.73,34.05
15:07:57,10.241334,102.73,34.05
15:07:58,10.254134,102.72,34.03
15:07:58,10.283575,102.72,34.03
15:07:58,10.315576,102.72,34.03
15:07:58,10.356536,102.72,34.03
15:07:59,10.402617,102.7,34.05
15:07:59,10.448697,102.7,34.05
15:07:59,10.476858,102.7,34.05
15:07:59,10.501178,102.7,34.05
15:08:00,10.494778,102.68,34.03
15:08:00,10.490938,102.68,34.03
15:08:00,10.479417999999999,102.68,34.03
15:08:00,10.475577000000001,102.68,34.03
15:08:01,10.476858,102.65,34.05
15:08:01,10.476858,102.65,34.05
15:08:01,10.462777,102.65,34.05
15:08:01,10.446137,102.65,34.05
15:08:02,10.434617,102.63,34.05
15:08:02,10.417977,102.63,34.05
15:08:02,10.400057,102.63,34.05
15:08:02,10.383416,102.63,34.05
15:08:03,10.366776,102.63,34.07
15:08:03,10.353976,102.63,34.07
15:08:03,10.346295,102.63,34.07
15:08:03,10.339895,102.63,34.07
15:08:04,10.336056,102.65,34.05
15:08:04,10.359096000000001,102.65,34.05
15:08:04,10.417977,102.65,34.05
15:08:04,10.480698,102.65,34.05
15:08:05,10.538299,102.68,34.05
15:08:05,10.58694,102.68,34.05
15:08:05,10.6151,102.68,34.05
15:08:05,10.6151,102.68,34.05
15:08:06,10.594619999999999,102.73,34.05
15:08:06,10.575419,102.73,34.05
15:08:06,10.556219,102.73,34.05
15:08:06,10.535739,102.73,34.05
15:08:07,10.512698,102.78,34.05
15:08:07,10.499898,102.78,34.05
15:08:07,10.475577000000001,102.78,34.05
15:08:07,10.469177,102.78,34.05
15:08:08,10.473018,102.82,34.05
15:08:08,10.467897,102.82,34.05
15:08:08,10.465338000000001,102.82,34.05
15:08:08,10.458938,102.82,34.05
15:08:09,10.444858,102.83,34.07
15:08:09,10.434617,102.83,34.07
15:08:09,10.424377,102.83,34.07
15:08:09,10.415417,102.83,34.07
15:08:10,10.411577000000001,102.82,34.05
15:08:10,10.415417,102.82,34.05
15:08:10,10.416697000000001,102.82,34.05
15:08:10,10.420537,102.82,34.05
15:08:11,10.416697000000001,102.78,34.05
15:08:11,10.416697000000001,102.78,34.05
15:08:11,10.405177,102.78,34.05
15:08:11,10.392377,102.78,34.05
15:08:12,10.388536,102.75,34.05
15:08:12,10.375736,102.75,34.05
15:08:12,10.371896000000001,102.75,34.05
15:08:12,10.362936,102.75,34.05
15:08:13,10.357816,102.7,34.05
15:08:13,10.350136000000001,102.7,34.05
15:08:13,10.347576,102.7,34.05
15:08:13,10.343736,102.7,34.05
15:08:14,10.339895,102.63,34.05
15:08:14,10.336056,102.63,34.05
15:08:14,10.332215,102.63,34.05
15:08:14,10.319415,102.63,34.05
15:08:15,10.309175,102.57,34.05
15:08:15,10.292535,102.57,34.05
15:08:15,10.289975,102.57,34.05
15:08:15,10.291255,102.57,34.05
15:08:16,10.288694,102.5,34.05
15:08:16,10.295094,102.5,34.05
15:08:16,10.292535,102.5,34.05
15:08:16,10.302775,102.5,34.05
15:08:17,10.306614999999999,102.42,34.03
15:08:17,10.325814999999999,102.42,34.03
15:08:17,10.330935,102.42,34.03
15:08:17,10.334776,102.42,34.03
15:08:18,10.333495,102.32,34.05
15:08:18,10.337336,102.32,34.05
15:08:18,10.328375999999999,102.32,34.05
15:08:18,10.311735,102.32,34.05
15:08:19,10.306614999999999,102.22,34.05
15:08:19,10.301495,102.22,34.05
15:08:19,10.293814999999999,102.22,34.05
15:08:19,10.284855,102.22,34.05
15:08:20,10.279735,102.08,34.03
15:08:20,10.270775,102.08,34.03
15:08:20,10.270775,102.08,34.03
15:08:20,10.264375,102.08,34.03
15:08:21,10.263094,101.93,34.05
15:08:21,10.257975,101.93,34.05
15:08:21,10.264375,101.93,34.05
15:08:21,10.272055,101.93,34.05
15:08:22,10.260534,101.8,34.05
15:08:22,10.259253999999999,101.8,34.05
15:08:22,10.247734,101.8,34.05
15:08:22,10.243894000000001,101.8,34.05
15:08:23,10.241334,101.68,34.05
15:08:23,10.241334,101.68,34.05
15:08:23,10.232374,101.68,34.05
15:08:23,10.227253999999999,101.68,34.05
15:08:24,10.220854,101.55,34.07
15:08:24,10.222134,101.55,34.07
15:08:24,10.229814,101.55,34.07
15:08:24,10.213174,101.55,34.07
15:08:25,10.208053999999999,101.45,34.05
15:08:25,10.205492999999999,101.45,34.05
15:08:25,10.199093,101.45,34.05
15:08:25,10.197813,101.45,34.05
15:08:26,10.196533,101.4,34.05
15:08:26,10.202933,101.4,34.05
15:08:26,10.193974,101.4,34.05
15:08:26,10.193974,101.4,34.05
15:08:27,10.188853,101.4,34.03
15:08:27,10.193974,101.4,34.03
15:08:27,10.195253,101.4,34.03
15:08:27,10.191413,101.4,34.03
15:08:28,10.186293,101.42,34.07
15:08:28,10.187573,101.42,34.07
15:08:28,10.177333,101.42,34.07
15:08:28,10.173492,101.42,34.07
15:08:29,10.170933,101.47,34.05
15:08:29,10.174773,101.47,34.05
15:08:29,10.170933,101.47,34.05
15:08:29,10.164533,101.47,34.05
15:08:30,10.167092,101.53,34.07
15:08:30,10.159412,101.53,34.07
15:08:30,10.151732,101.53,34.07
15:08:30,10.147893,101.53,34.07
15:08:31,10.144053,101.62,34.07
15:08:31,10.144053,101.62,34.07
15:08:31,10.141492999999999,101.62,34.07
15:08:31,10.138932,101.62,34.07
15:08:32,10.133811999999999,101.78,34.07
15:08:32,10.136372999999999,101.78,34.07
15:08:32,10.129972,101.78,34.07
15:08:32,10.132532000000001,101.78,34.07
15:08:33,10.128693,101.95,34.05
15:08:33,10.123572,101.95,34.05
15:08:33,10.118452,101.95,34.05
15:08:33,10.115892,101.95,34.05
15:08:34,10.117172,102.08,34.07
15:08:34,10.112052,102.08,34.07
15:08:34,10.115892,102.08,34.07
15:08:34,10.138932,102.08,34.07
15:08:35,10.141492999999999,102.2,34.07
15:08:35,10.035250999999999,102.2,34.07
15:08:35,9.850927,102.2,34.07
15:08:35,9.858646,102.2,34.07
15:08:36,10.06473,102.3,34.07
15:08:36,10.119769999999999,102.3,34.07
15:08:36,10.232412,102.3,34.07
15:08:36,10.455135,102.3,34.07
15:08:37,10.434617,102.37,34.05
15:08:37,10.520378,102.37,34.05
15:08:37,10.599739999999999,102.37,34.05
15:08:37,10.556219,102.37,34.05
15:08:38,10.577979,102.4,34.09
15:08:38,10.60102,102.4,34.09
15:08:38,10.444858,102.4,34.09
15:08:38,10.378296,102.4,34.09
15:08:39,10.401337,102.43,34.09
15:08:39,10.480698,102.43,34.09
15:08:39,10.535739,102.43,34.09
15:08:39,10.545978999999999,102.43,34.09
15:08:40,10.525497999999999,102.48,34.09
15:08:40,10.545978999999999,102.48,34.09
15:08:40,10.59206,102.48,34.09
15:08:40,10.599739999999999,102.48,34.09
15:08:41,10.58054,102.55,34.07
15:08:41,10.516539,102.55,34.07
15:08:41,10.780223,102.55,34.07
15:08:41,10.65478,102.55,34.07
15:08:42,10.59334,102.67,34.07
15:08:42,10.423097,102.67,34.07
15:08:42,10.288694,102.67,34.07
15:08:42,10.506298,102.67,34.07
15:08:43,10.656061,102.8,34.05
15:08:43,10.935105,102.8,34.05
15:08:43,11.004227,102.8,34.05
15:08:43,11.099508,102.8,34.05
15:08:44,11.155828999999999,102.97,34.07
15:08:44,11.135348,102.97,34.07
15:08:44,11.058547,102.97,34.07
15:08:44,10.934385,102.97,34.07
15:08:45,10.837104,103.13,34.07
15:08:45,10.764142999999999,103.13,34.07
15:08:45,10.700142,103.13,34.07
15:08:45,10.636141,103.13,34.07
15:08:46,10.58366,103.33,34.07
15:08:46,10.536299,103.33,34.07
15:08:46,10.491498,103.33,34.07
15:08:46,10.447977,103.33,34.07
15:08:47,10.426936999999999,103.6,34.07
15:08:47,10.437178,103.6,34.07
15:08:47,10.501178,103.6,34.07
15:08:47,10.61382,103.6,34.07
15:08:48,10.735422,103.82,34.07
15:08:48,10.818624,103.82,34.07
15:08:48,10.839103999999999,103.82,34.07
15:08:48,10.831424,103.82,34.07
15:08:49,10.782783,104.07,34.09
15:08:49,10.712381,104.07,34.09
15:08:49,10.639421,104.07,34.09
15:08:49,10.569019,104.07,34.09
15:08:50,10.508859,104.3,34.05
15:08:50,10.460217,104.3,34.05
15:08:50,10.412857,104.3,34.05
15:08:50,10.374456,104.3,34.05
15:08:51,10.345016000000001,104.52,34.09
15:08:51,10.320694999999999,104.52,34.09
15:08:51,10.295094,104.52,34.09
15:08:51,10.273335000000001,104.52,34.09
15:08:52,10.255414,104.72,34.05
15:08:52,10.238774000000001,104.72,34.05
15:08:52,10.220854,104.72,34.05
15:08:52,10.204213000000001,104.72,34.05
15:08:53,10.192692999999998,104.87,34.07
15:08:53,10.183733,104.87,34.07
15:08:53,10.170933,104.87,34.07
15:08:53,10.158133,104.87,34.07
15:08:54,10.145332000000002,104.95,34.07
15:08:54,10.135093,104.95,34.07
15:08:54,10.121012,104.95,34.07
15:08:54,10.118452,104.95,34.07
15:08:55,10.104372,105.05,34.07
15:08:55,10.100532000000001,105.05,34.07
15:08:55,10.089011,105.05,34.07
15:08:55,10.081331,105.05,34.07
15:08:56,10.071092,105.1,34.09
15:08:56,10.071092,105.1,34.09
15:08:56,10.054451,105.1,34.09
15:08:56,10.046771000000001,105.1,34.09
15:08:57,10.031410000000001,105.15,34.09
15:08:57,10.02501,105.15,34.09
15:08:57,10.013491,105.15,34.09
15:08:57,9.999410000000001,105.15,34.09
15:08:58,9.98789,105.22,34.07
15:08:58,9.973809,105.22,34.07
15:08:58,9.966128999999999,105.22,34.07
15:08:58,9.963608,105.22,34.07
15:08:59,9.953367,105.3,34.05
15:08:59,9.946966999999999,105.3,34.05
15:08:59,9.936728,105.3,34.05
15:08:59,9.938007,105.3,34.05
15:09:00,9.943128,105.4,34.09
15:09:00,9.950808,105.4,34.09
15:09:00,9.957208,105.4,34.09
15:09:00,9.958488000000001,105.4,34.09
15:09:01,9.954647999999999,105.52,34.07
15:09:01,9.949527999999999,105.52,34.07
15:09:01,9.934167,105.52,34.07
15:09:01,9.921367,105.52,34.07
15:09:02,9.912407,105.63,34.07
15:09:02,9.902166000000001,105.63,34.07
15:09:02,9.890647,105.63,34.07
15:09:02,9.881686,105.63,34.07
15:09:03,9.881686,105.75,34.11
15:09:03,9.875286000000001,105.75,34.11
15:09:03,9.865047,105.75,34.11
15:09:03,9.856086,105.75,34.11
15:09:04,9.845846,105.87,34.09
15:09:04,9.843286,105.87,34.09
15:09:04,9.842006,105.87,34.09
15:09:04,9.833046000000001,105.87,34.09
15:09:05,9.833046000000001,106.0,34.11
15:09:05,9.848405999999999,106.0,34.11
15:09:05,9.861206,106.0,34.11
15:09:05,9.870166000000001,106.0,34.11
15:09:06,9.863767,106.12,34.11
15:09:06,9.859926,106.12,34.11
15:09:06,9.856086,106.12,34.11
15:09:06,9.848405999999999,106.12,34.11
15:09:07,9.842006,106.25,34.11
15:09:07,9.839446,106.25,34.11
15:09:07,9.831766,106.25,34.11
15:09:07,9.818966,106.25,34.11
15:09:08,9.816405,106.37,34.11
15:09:08,9.813846,106.37,34.11
15:09:08,9.808725,106.37,34.11
15:09:08,9.806166000000001,106.37,34.11
15:09:09,9.801045,106.48,34.13
15:09:09,9.794645,106.48,34.13
15:09:09,9.788245,106.48,34.13
15:09:09,9.778005,106.48,34.13
15:09:10,9.776725,106.65,34.13
15:09:10,9.771605000000001,106.65,34.13
15:09:10,9.771605000000001,106.65,34.13
15:09:10,9.772884,106.65,34.13
15:09:11,9.784405,106.83,34.11
15:09:11,9.813846,106.83,34.11
15:09:11,9.842006,106.83,34.11
15:09:11,9.858646,106.83,34.11
15:09:12,9.861206,106.98,34.11
15:09:12,9.863767,106.98,34.11
15:09:12,9.856086,106.98,34.11
15:09:12,9.845846,106.98,34.11
15:09:13,9.831766,107.13,34.11
15:09:13,9.822805,107.13,34.11
15:09:13,9.807446,107.13,34.11
15:09:13,9.795925,107.13,34.11
15:09:14,9.785685,107.27,34.13
15:09:14,9.776725,107.27,34.13
15:09:14,9.771605000000001,107.27,34.13
15:09:14,9.765203999999999,107.27,34.13
15:09:15,9.756245,107.37,34.11
15:09:15,9.751124,107.37,34.11
15:09:15,9.747284,107.37,34.11
15:09:15,9.742165,107.37,34.11
15:09:16,9.734484,107.45,34.11
15:09:16,9.722964,107.45,34.11
15:09:16,9.722964,107.45,34.11
15:09:16,9.714004,107.45,34.11
15:09:17,9.712724,107.48,34.15
15:09:17,9.714004,107.48,34.15
15:09:17,9.707603,107.48,34.15
15:09:17,9.711444,107.48,34.15
15:09:18,9.699924000000001,107.53,34.13
15:09:18,9.702483,107.53,34.13
15:09:18,9.697364,107.53,34.13
15:09:18,9.688403,107.53,34.13
15:09:19,9.674323,107.57,34.13
15:09:19,9.670483,107.57,34.13
15:09:19,9.671763,107.57,34.13
15:09:19,9.664083,107.57,34.13
15:09:20,9.660243,107.6,34.15
15:09:20,9.652563,107.6,34.15
15:09:20,9.653843,107.6,34.15
15:09:20,9.646163,107.6,34.15
15:09:21,9.646163,107.63,34.13
15:09:21,9.648723,107.63,34.13
15:09:21,9.639763,107.63,34.13
15:09:21,9.641043,107.63,34.13
15:09:22,9.630802000000001,107.65,34.15
15:09:22,9.632082,107.65,34.15
15:09:22,9.625682000000001,107.65,34.15
15:09:22,9.621842,107.65,34.15
15:09:23,9.616722,107.65,34.15
15:09:23,9.616722,107.65,34.15
15:09:23,9.602642,107.65,34.15
15:09:23,9.605202,107.65,34.15
15:09:24,9.606482000000002,107.65,34.15
15:09:24,9.594961999999999,107.65,34.15
15:09:24,9.603922,107.65,34.15
15:09:24,9.594961999999999,107.65,34.15
15:09:25,9.589841999999999,107.65,34.15
15:09:25,9.579601,107.65,34.15
15:09:25,9.571921000000001,107.65,34.15
15:09:25,9.562961999999999,107.65,34.15
15:09:26,9.559121000000001,107.65,34.15
15:09:26,9.551441,107.65,34.15
15:09:26,9.548882,107.65,34.15
15:09:26,9.546321,107.65,34.15
15:09:27,9.547601,107.65,34.16
15:09:27,9.539921000000001,107.65,34.16
15:09:27,9.536081,107.65,34.16
15:09:27,9.537361,107.65,34.16
15:09:28,9.518161,107.65,34.15
15:09:28,9.519441,107.65,34.15
15:09:28,9.50792,107.65,34.15
15:09:28,9.506639999999999,107.65,34.15
15:09:29,9.5028,107.65,34.15
15:09:29,9.491280999999999,107.65,34.15
15:09:29,9.48744,107.65,34.15
15:09:29,9.4836,107.65,34.15
15:09:30,9.48104,107.65,34.16
15:09:30,9.48104,107.65,34.16
15:09:30,9.47592,107.65,34.16
15:09:30,9.47592,107.65,34.16
15:09:31,9.470799000000001,107.63,34.18
15:09:31,9.46568,107.63,34.18
15:09:31,9.46519,107.63,34.18
15:09:31,9.461349,107.63,34.18
15:09:32,9.45623,107.57,34.16
15:09:32,9.453669999999999,107.57,34.16
15:09:32,9.448549,107.57,34.16
15:09:32,9.44471,107.57,34.16
15:09:33,9.439589999999999,107.47,34.15
15:09:33,9.443430000000001,107.47,34.15
15:09:33,9.435749000000001,107.47,34.15
15:09:33,9.433189,107.47,34.15
15:09:34,9.438310000000001,107.35,34.15
15:09:34,9.442149,107.35,34.15
15:09:34,9.438310000000001,107.35,34.15
15:09:34,9.435749000000001,107.35,34.15
15:09:35,9.43703,107.22,34.16
15:09:35,9.43063,107.22,34.16
15:09:35,9.42423,107.22,34.16
15:09:35,9.422949000000001,107.22,34.16
15:09:36,9.422949000000001,107.07,34.15
15:09:36,9.419108999999999,107.07,34.15
15:09:36,9.410149,107.07,34.15
15:09:36,9.403749000000001,107.07,34.15
15:09:37,9.398629,106.85,34.15
15:09:37,9.393509,106.85,34.15
15:09:37,9.389667999999999,106.85,34.15
15:09:37,9.384547999999999,106.85,34.15
15:09:38,9.379429,106.65,34.15
15:09:38,9.378148,106.65,34.15
15:09:38,9.374309,106.65,34.15
15:09:38,9.369188000000001,106.65,34.15
15:09:39,9.365348,106.47,34.16
15:09:39,9.360228999999999,106.47,34.16
15:09:39,9.356388,106.47,34.16
15:09:39,9.351268,106.47,34.16
15:09:40,9.349988,106.3,34.15
15:09:40,9.338467999999999,106.3,34.15
15:09:40,9.341028,106.3,34.15
15:09:40,9.333347,106.3,34.15
15:09:41,9.332067,106.13,34.16
15:09:41,9.334628,106.13,34.16
15:09:41,9.325667,106.13,34.16
15:09:41,9.317986999999999,106.13,34.16
15:09:42,9.319267,105.97,34.15
15:09:42,9.315428,105.97,34.15
15:09:42,9.315428,105.97,34.15
15:09:42,9.307747,105.97,34.15
15:09:43,9.306467,105.93,34.16
15:09:43,9.316708,105.93,34.16
15:09:43,9.310308000000001,105.93,34.16
15:09:43,9.302628,105.93,34.16
15:09:44,9.300067,105.87,34.16
15:09:44,9.297507000000001,105.87,34.16
15:09:44,9.306467,105.87,34.16
15:09:44,9.297507000000001,105.87,34.16
15:09:45,9.294947,105.8,34.15
15:09:45,9.296227,105.8,34.15
15:09:45,9.284707000000001,105.8,34.15
15:09:45,9.282146000000001,105.8,34.15
15:09:46,9.277027,105.72,34.16
15:09:46,9.298786999999999,105.72,34.16
15:09:46,9.287267,105.72,34.16
15:09:46,9.278307,105.72,34.16
15:09:47,9.274467,105.62,34.16
15:09:47,9.269346,105.62,34.16
15:09:47,9.266786999999999,105.62,34.16
15:09:47,9.259107,105.62,34.16
15:09:48,9.264227,105.55,34.16
15:09:48,9.268066000000001,105.55,34.16
15:09:48,9.296227,105.55,34.16
15:09:48,9.348708,105.55,34.16
15:09:49,9.388389,105.48,34.16
15:09:49,9.402469,105.48,34.16
15:09:49,9.408869000000001,105.48,34.16
15:09:49,9.425509,105.48,34.16
15:09:50,9.43063,105.43,34.16
15:09:50,9.43191,105.43,34.16
15:09:50,9.428069,105.43,34.16
15:09:50,9.433189,105.43,34.16
15:09:51,9.43191,105.42,34.18
15:09:51,9.439589999999999,105.42,34.18
15:09:51,9.43703,105.42,34.18
15:09:51,9.434469,105.42,34.18
15:09:52,9.435749000000001,105.42,34.16
15:09:52,9.44599,105.42,34.16
15:09:52,9.442149,105.42,34.16
15:09:52,9.43191,105.42,34.16
15:09:53,9.433189,105.45,34.16
15:09:53,9.43703,105.45,34.16
15:09:53,9.434469,105.45,34.16
15:09:53,9.435749000000001,105.45,34.16
15:09:54,9.44599,105.53,34.16
15:09:54,9.46263,105.53,34.16
15:09:54,9.490789999999999,105.53,34.16
15:09:54,9.529191,105.53,34.16
15:09:55,9.567592,105.57,34.16
15:09:55,9.594472,105.57,34.16
15:09:55,9.604712,105.57,34.16
15:09:55,9.605992,105.57,34.16
15:09:56,9.602152,105.62,34.18
15:09:56,9.604712,105.62,34.18
15:09:56,9.611113000000001,105.62,34.18
15:09:56,9.617513,105.62,34.18
15:09:57,9.623913,105.6,34.18
15:09:57,9.629032,105.6,34.18
15:09:57,9.627752000000001,105.6,34.18
15:09:57,9.621352,105.6,34.18
15:09:58,9.608552,105.58,34.16
15:09:58,9.598312,105.58,34.16
15:09:58,9.585512,105.58,34.16
15:09:58,9.575272,105.58,34.16
15:09:59,9.565031,105.52,34.16
15:09:59,9.562471,105.52,34.16
15:09:59,9.548391,105.52,34.16
15:09:59,9.543271,105.52,34.16
15:10:00,9.539431,105.4,34.15
15:10:00,9.530471,105.4,34.15
15:10:00,9.521511,105.4,34.15
15:10:00,9.524071000000001,105.4,34.15
15:10:01,9.51895,105.27,34.18
15:10:01,9.51255,105.27,34.18
15:10:01,9.50615,105.27,34.18
15:10:01,9.50103,105.27,34.18
15:10:02,9.502311,105.13,34.16
15:10:02,9.49719,105.13,34.16
15:10:02,9.49719,105.13,34.16
15:10:02,9.49719,105.13,34.16
15:10:03,9.511271,105.0,34.16
15:10:03,9.539431,105.0,34.16
15:10:03,9.580392,105.0,34.16
15:10:03,9.618793,105.0,34.16
15:10:04,9.646953,104.9,34.18
15:10:04,9.655913,104.9,34.18
15:10:04,9.667433,104.9,34.18
15:10:04,9.658472999999999,104.9,34.18
15:10:05,9.644392999999999,104.82,34.16
15:10:05,9.631592999999999,104.82,34.16
15:10:05,9.616232,104.82,34.16
15:10:05,9.600872,104.82,34.16
15:10:06,9.589352,104.73,34.16
15:10:06,9.581672,104.73,34.16
15:10:06,9.570151,104.73,34.16
15:10:06,9.571431,104.73,34.16
15:10:07,9.562471,104.62,34.16
15:10:07,9.552230999999999,104.62,34.16
15:10:07,9.548391,104.62,34.16
15:10:07,9.538151,104.62,34.16
15:10:08,9.536871000000001,104.52,34.16
15:10:08,9.527911,104.52,34.16
15:10:08,9.52663,104.52,34.16
15:10:08,9.521511,104.52,34.16
15:10:09,9.524071000000001,104.42,34.15
15:10:09,9.52023,104.42,34.15
15:10:09,9.517671,104.42,34.15
15:10:09,9.516391,104.42,34.15
15:10:10,9.51383,104.25,34.16
15:10:10,9.509991000000001,104.25,34.16
15:10:10,9.503591,104.25,34.16
15:10:10,9.507430000000001,104.25,34.16
15:10:11,9.503591,104.07,34.16
15:10:11,9.495911,104.07,34.16
15:10:11,9.49975,104.07,34.16
15:10:11,9.503591,104.07,34.16
15:10:12,9.495911,103.9,34.16
15:10:12,9.495911,103.9,34.16
15:10:12,9.490789999999999,103.9,34.16
15:10:12,9.489511,103.9,34.16
15:10:13,9.48311,103.73,34.18
15:10:13,9.48055,103.73,34.18
15:10:13,9.48055,103.73,34.18
15:10:13,9.49463,103.73,34.18
15:10:14,9.508711,103.57,34.16
15:10:14,9.530471,103.57,34.16
15:10:14,9.559911999999999,103.57,34.16
15:10:14,9.570151,103.57,34.16
15:10:15,9.572712,103.43,34.16
15:10:15,9.567592,103.43,34.16
15:10:15,9.557350999999999,103.43,34.16
15:10:15,9.548391,103.43,34.16
15:10:16,9.534311,103.3,34.16
15:10:16,9.521511,103.3,34.16
15:10:16,9.511271,103.3,34.16
15:10:16,9.49975,103.3,34.16
15:10:17,9.495911,103.2,34.15
15:10:17,9.48695,103.2,34.15
15:10:17,9.485669999999999,103.2,34.15
15:10:17,9.48183,103.2,34.15
15:10:18,9.47799,103.07,34.16
15:10:18,9.475430000000001,103.07,34.16
15:10:18,9.470310000000001,103.07,34.16
15:10:18,9.469028999999999,103.07,34.16
15:10:19,9.46519,102.92,34.16
15:10:19,9.46263,102.92,34.16
15:10:19,9.461349,102.92,34.16
15:10:19,9.454949000000001,102.92,34.16
15:10:20,9.457510000000001,102.75,34.15
15:10:20,9.457510000000001,102.75,34.15
15:10:20,9.454949000000001,102.75,34.15
15:10:20,9.45111,102.75,34.15
15:10:21,9.447269,102.58,34.16
15:10:21,9.443430000000001,102.58,34.16
15:10:21,9.439589999999999,102.58,34.16
15:10:21,9.438310000000001,102.58,34.16
15:10:22,9.433189,102.42,34.16
15:10:22,9.434469,102.42,34.16
15:10:22,9.429349,102.42,34.16
15:10:22,9.428069,102.42,34.16
15:10:23,9.420389,102.25,34.15
15:10:23,9.422949000000001,102.25,34.15
15:10:23,9.419108999999999,102.25,34.15
15:10:23,9.421669,102.25,34.15
15:10:24,9.41783,102.08,34.16
15:10:24,9.413989,102.08,34.16
15:10:24,9.422949000000001,102.08,34.16
15:10:24,9.416549,102.08,34.16
15:10:25,9.412709,101.9,34.16
15:10:25,9.413989,101.9,34.16
15:10:25,9.412709,101.9,34.16
15:10:25,9.406309,101.9,34.16
15:10:26,9.401189,101.72,34.13
15:10:26,9.403749000000001,101.72,34.13
15:10:26,9.402469,101.72,34.13
15:10:26,9.398629,101.72,34.13
15:10:27,9.390948,101.55,34.13
15:10:27,9.392228999999999,101.55,34.13
15:10:27,9.389667999999999,101.55,34.13
15:10:27,9.385829,101.55,34.13
15:10:28,9.383268,101.38,34.13
15:10:28,9.380709,101.38,34.13
15:10:28,9.375588,101.38,34.13
15:10:28,9.385829,101.38,34.13
15:10:29,9.389667999999999,101.22,34.16
15:10:29,9.399909,101.22,34.16
15:10:29,9.401189,101.22,34.16
15:10:29,9.403749000000001,101.22,34.16
15:10:30,9.405028999999999,101.07,34.16
15:10:30,9.438310000000001,101.07,34.16
15:10:30,9.49719,101.07,34.16
15:10:30,9.588072,101.07,34.16
15:10:31,9.680233,100.93,34.15
15:10:31,9.759595,100.93,34.15
15:10:31,9.809515,100.93,34.15
15:10:31,9.838956,100.93,34.15
15:10:32,9.847916,100.85,34.16
15:10:32,9.841516,100.85,34.16
15:10:32,9.837676,100.85,34.16
15:10:32,9.832556,100.85,34.16
15:10:33,9.829996000000001,100.8,34.16
15:10:33,9.847916,100.8,34.16
15:10:33,9.885036,100.8,34.16
15:10:33,9.929837,100.8,34.16
15:10:34,9.968238000000001,100.77,34.15
15:10:34,10.010968,100.77,34.15
15:10:34,10.009688,100.77,34.15
15:10:34,10.000729,100.77,34.15
15:10:35,9.973848,100.75,34.16
15:10:35,9.943128,100.75,34.16
15:10:35,9.903447,100.75,34.16
15:10:35,9.870166000000001,100.75,34.16
15:10:36,9.842006,100.73,34.15
15:10:36,9.816405,100.73,34.15
15:10:36,9.786964999999999,100.73,34.15
15:10:36,9.767764999999999,100.73,34.15
15:10:37,9.747284,100.77,34.15
15:10:37,9.735764999999999,100.77,34.15
15:10:37,9.722964,100.77,34.15
15:10:37,9.705044000000001,100.77,34.15
15:10:38,9.699924000000001,100.78,34.16
15:10:38,9.706324,100.78,34.16
15:10:38,9.730644,100.78,34.16
15:10:38,9.756245,100.78,34.16
15:10:39,9.797205,100.77,34.16
15:10:39,9.835606,100.77,34.16
15:10:39,9.877847000000001,100.77,34.16
15:10:39,9.908566,100.77,34.16
15:10:40,9.918807000000001,100.7,34.15
15:10:40,9.921367,100.7,34.15
15:10:40,9.911127,100.7,34.15
15:10:40,9.911127,100.7,34.15
15:10:41,9.923927,100.62,34.16
15:10:41,9.935448,100.62,34.16
15:10:41,9.939287,100.62,34.16
15:10:41,9.927767,100.62,34.16
15:10:42,9.921367,100.48,34.16
15:10:42,9.898327,100.48,34.16
15:10:42,9.875286000000001,100.48,34.16
15:10:42,9.852246000000001,100.48,34.16
15:10:43,9.830485000000001,100.2,34.13
15:10:43,9.816405,100.2,34.13
15:10:43,9.804885,100.2,34.13
15:10:43,9.793365,100.2,34.13
15:10:44,9.783125,99.93,34.15
15:10:44,9.774165,99.93,34.15
15:10:44,9.778005,99.93,34.15
15:10:44,9.771605000000001,99.93,34.15
15:10:45,9.761365,99.68,34.15
15:10:45,9.752403999999999,99.68,34.15
15:10:45,9.746004,99.68,34.15
15:10:45,9.746004,99.68,34.15
15:10:46,9.738324,99.45,34.15
15:10:46,9.733203999999999,99.45,34.15
15:10:46,9.728083999999999,99.45,34.15
15:10:46,9.726804,99.45,34.15
15:10:47,9.722964,99.17,34.13
15:10:47,9.719124,99.17,34.13
15:10:47,9.716564,99.17,34.13
15:10:47,9.712724,99.17,34.13
15:10:48,9.707603,98.92,34.15
15:10:48,9.701203,98.92,34.15
15:10:48,9.701203,98.92,34.15
15:10:48,9.693522999999999,98.92,34.15
15:10:49,9.688403,98.65,34.15
15:10:49,9.685842999999998,98.65,34.15
15:10:49,9.684564,98.65,34.15
15:10:49,9.685842999999998,98.65,34.15
15:10:50,9.680723,98.4,34.15
15:10:50,9.680723,98.4,34.15
15:10:50,9.674323,98.4,34.15
15:10:50,9.676883,98.4,34.15
15:10:51,9.671763,98.15,34.15
15:10:51,9.685842999999998,98.15,34.15
15:10:51,9.710164,98.15,34.15
15:10:51,9.757524,98.15,34.15
15:10:52,9.802325,97.88,34.13
15:10:52,9.845846,97.88,34.13
15:10:52,9.867606,97.88,34.13
15:10:52,9.880405999999999,97.88,34.13
15:10:53,9.882966,97.62,34.15
15:10:53,9.870166000000001,97.62,34.15
15:10:53,9.858646,97.62,34.15
15:10:53,9.840726,97.62,34.15
15:10:54,9.822805,97.37,34.15
15:10:54,9.808725,97.37,34.15
15:10:54,9.803605000000001,97.37,34.15
15:10:54,9.792085,97.37,34.15
15:10:55,9.788245,97.13,34.16
15:10:55,9.786964999999999,97.13,34.16
15:10:55,9.783125,97.13,34.16
15:10:55,9.790805,97.13,34.16
15:10:56,9.804885,96.92,34.13
15:10:56,9.825366,96.92,34.13
15:10:56,9.842006,96.92,34.13
15:10:56,9.854806,96.92,34.13
15:10:57,9.859926,96.77,34.16
15:10:57,9.849686,96.77,34.16
15:10:57,9.838166000000001,96.77,34.16
15:10:57,9.830485000000001,96.77,34.16
15:10:58,9.817685,96.6,34.15
15:10:58,9.808725,96.6,34.15
15:10:58,9.803605000000001,96.6,34.15
15:10:58,9.792085,96.6,34.15
15:10:59,9.783125,96.47,34.15
15:10:59,9.781845,96.47,34.15
15:10:59,9.780565,96.47,34.15
15:10:59,9.779284,96.47,34.15
15:11:00,9.776725,96.35,34.15
15:11:00,9.778005,96.35,34.15
15:11:00,9.775445,96.35,34.15
15:11:00,9.772884,96.35,34.15
15:11:01,9.771605000000001,96.25,34.16
15:11:01,9.774165,96.25,34.16
15:11:01,9.772884,96.25,34.16
15:11:01,9.765203999999999,96.25,34.16
15:11:02,9.760083999999999,96.15,34.16
15:11:02,9.760083999999999,96.15,34.16
15:11:02,9.753684,96.15,34.16
15:11:02,9.753684,96.15,34.16
15:11:03,9.749845,96.03,34.15
15:11:03,9.748565,96.03,34.15
15:11:03,9.756245,96.03,34.15
15:11:03,9.784405,96.03,34.15
15:11:04,9.834325999999999,95.88,34.15
15:11:04,9.940567,95.88,34.15
15:11:04,9.984088,95.88,34.15
15:11:04,10.032729,95.88,34.15
15:11:05,10.06601,95.7,34.15
15:11:05,10.09417,95.7,34.15
15:11:05,10.08393,95.7,34.15
15:11:05,10.067289,95.7,34.15
15:11:06,10.051929,95.5,34.13
15:11:06,10.028889,95.5,34.13
15:11:06,10.018649,95.5,34.13
15:11:06,9.996888,95.5,34.13
15:11:07,9.978968,95.32,34.13
15:11:07,9.968728,95.32,34.13
15:11:07,9.950808,95.32,34.13
15:11:07,9.940567,95.32,34.13
15:11:08,9.925207,95.13,34.15
15:11:08,9.927767,95.13,34.15
15:11:08,9.912407,95.13,34.15
15:11:08,9.908566,95.13,34.15
15:11:09,9.904727000000001,94.97,34.15
15:11:09,9.907287,94.97,34.15
15:11:09,9.913687,94.97,34.15
15:11:09,9.912407,94.97,34.15
15:11:10,9.912407,94.85,34.15
15:11:10,9.912407,94.85,34.15
15:11:10,9.912407,94.85,34.15
15:11:10,9.941848,94.85,34.15
15:11:11,10.010968,94.77,34.13
15:11:11,10.10057,94.77,34.13
15:11:11,10.178651,94.77,34.13
15:11:11,10.232412,94.77,34.13
15:11:12,10.252892,94.72,34.15
15:11:12,10.247772,94.72,34.15
15:11:12,10.218332,94.72,34.15
15:11:12,10.177371,94.72,34.15
15:11:13,10.137691,94.73,34.11
15:11:13,10.11209,94.73,34.11
15:11:13,10.08393,94.73,34.11
15:11:13,10.059609,94.73,34.11
15:11:14,10.045529,94.78,34.13
15:11:14,10.031449,94.78,34.13
15:11:14,10.023767999999999,94.78,34.13
15:11:14,10.007128999999999,94.78,34.13
15:11:15,9.996888,94.82,34.15
15:11:15,9.989208,94.82,34.15
15:11:15,9.978968,94.82,34.15
15:11:15,9.975128,94.82,34.15
15:11:16,9.968728,94.87,34.13
15:11:16,9.967448,94.87,34.13
15:11:16,9.955928,94.87,34.13
15:11:16,9.948248,94.87,34.13
15:11:17,9.941848,94.93,34.13
15:11:17,9.941848,94.93,34.13
15:11:17,9.943128,94.93,34.13
15:11:17,9.946966999999999,94.93,34.13
15:11:18,9.935448,95.02,34.13
15:11:18,9.932887,95.02,34.13
15:11:18,9.929048,95.02,34.13
15:11:18,9.920086999999999,95.02,34.13
15:11:19,9.925207,95.1,34.13
15:11:19,9.936728,95.1,34.13
15:11:19,9.939287,95.1,34.13
15:11:19,9.934167,95.1,34.13
15:11:20,9.930327,95.2,34.15
15:11:20,9.927767,95.2,34.15
15:11:20,9.934167,95.2,34.15
15:11:20,9.935448,95.2,34.15
15:11:21,9.932887,95.28,34.15
