TIME,EDA,HR,TEMP,PHASE
13:15:10,7.02038,87.83,35.99,1-2
13:15:10,7.011417999999999,87.83,35.99,1-2
13:15:10,6.999896000000001,87.83,35.99,1-2
13:15:10,6.9832529999999995,87.83,35.99,1-2
13:15:11,6.978130999999999,87.79,35.97,1-2
13:15:11,6.97045,87.79,35.97,1-2
13:15:11,6.956367,87.79,35.97,1-2
13:15:11,6.948686,87.79,35.97,1-2
13:15:12,6.9358830000000005,87.75,35.97,1-2
13:15:12,6.924361,87.75,35.97,1-2
13:15:12,6.914119,87.75,35.97,1-2
13:15:12,6.898756,87.75,35.97,1-2
13:15:13,6.888514,87.43,35.97,1-2
13:15:13,6.875711,87.43,35.97,1-2
13:15:13,6.86675,87.43,35.97,1-2
13:15:13,6.857788,87.43,35.97,1-2
13:15:14,6.852666999999999,87.18,35.97,1-2
13:15:14,6.850105999999999,87.18,35.97,1-2
13:15:14,6.856507000000001,87.18,35.97,1-2
13:15:14,6.86803,87.18,35.97,1-2
13:15:15,6.905157000000001,87.04,35.97,1-2
13:15:15,6.937163000000001,87.04,35.97,1-2
13:15:15,6.947405000000001,87.04,35.97,1-2
13:15:15,6.949966000000001,87.04,35.97,1-2
13:15:16,6.943564,87.08,35.95,1-2
13:15:16,6.924361,87.08,35.95,1-2
13:15:16,6.907717999999999,87.08,35.95,1-2
13:15:16,6.897475999999999,87.08,35.95,1-2
13:15:17,6.885953,87.16,35.95,1-2
13:15:17,6.911558,87.16,35.95,1-2
13:15:17,6.962769000000001,87.16,35.95,1-2
13:15:17,7.012697999999999,87.16,35.95,1-2
13:15:18,7.037023,87.19,35.97,1-2
13:15:18,7.044703999999999,87.19,35.97,1-2
13:15:18,7.037023,87.19,35.97,1-2
13:15:18,7.0152589999999995,87.19,35.97,1-2
13:15:19,6.993494999999999,87.22,35.95,1-2
13:15:19,6.96917,87.22,35.95,1-2
13:15:19,6.946125,87.22,35.95,1-2
13:15:19,6.937163000000001,87.22,35.95,1-2
13:15:20,6.960208000000001,87.21,35.95,1-2
13:15:20,6.998614999999999,87.21,35.95,1-2
13:15:20,7.033182000000001,87.21,35.95,1-2
13:15:20,7.045985000000001,87.21,35.95,1-2
13:15:21,7.042144,87.21,35.93,1-2
13:15:21,7.025500999999999,87.21,35.93,1-2
13:15:21,7.006297,87.21,35.93,1-2
13:15:21,6.988372999999999,87.21,35.93,1-2
13:15:22,6.965329,87.17,35.95,1-2
13:15:22,6.9410039999999995,87.17,35.95,1-2
13:15:22,6.934603,87.17,35.95,1-2
13:15:22,6.9358830000000005,87.17,35.95,1-2
13:15:23,6.956367,87.13,35.93,1-2
13:15:23,6.9973350000000005,87.13,35.93,1-2
13:15:23,7.043424000000001,87.13,35.93,1-2
13:15:23,7.062628,87.13,35.93,1-2
13:15:24,7.07159,87.12,35.91,1-2
13:15:24,7.0639080000000005,87.12,35.91,1-2
13:15:24,7.051106,87.12,35.91,1-2
13:15:24,7.0319020000000005,87.12,35.91,1-2
13:15:25,7.003736,87.12,35.93,1-2
13:15:25,6.981972,87.12,35.93,1-2
13:15:25,6.981972,87.12,35.93,1-2
13:15:25,7.021660000000001,87.12,35.93,1-2
13:15:26,7.080552000000001,87.12,35.91,1-2
13:15:26,7.127921000000001,87.12,35.91,1-2
13:15:26,7.134322,87.12,35.91,1-2
13:15:26,7.121519999999999,87.12,35.91,1-2
13:15:27,7.090794,87.11,35.91,1-2
13:15:27,7.054946000000001,87.11,35.91,1-2
13:15:27,7.021660000000001,87.11,35.91,1-2
13:15:27,6.9832529999999995,87.11,35.91,1-2
13:15:28,6.952527000000001,87.11,35.93,1-2
13:15:28,6.923080000000001,87.11,35.93,1-2
13:15:28,6.896195,87.11,35.93,1-2
13:15:28,6.882113,87.11,35.93,1-2
13:15:29,6.86675,87.14,35.91,1-2
13:15:29,6.859068,87.14,35.91,1-2
13:15:29,6.846265,87.14,35.91,1-2
13:15:29,6.836023,87.14,35.91,1-2
13:15:30,6.828342,87.16,35.91,1-2
13:15:30,6.902596000000001,87.16,35.91,1-2
13:15:30,7.0472649999999994,87.16,35.91,1-2
13:15:30,7.213698,87.16,35.91,1-2
13:15:31,7.321239,87.18,35.93,1-2
13:15:31,7.4390220000000005,87.18,35.93,1-2
13:15:31,7.434488000000001,87.18,35.93,1-2
13:15:31,7.419125,87.18,35.93,1-2
13:15:32,7.408883,87.22,35.89,1-2
13:15:32,7.3666339999999995,87.22,35.89,1-2
13:15:32,7.310303,87.22,35.89,1-2
13:15:32,7.253972,87.22,35.89,1-2
13:15:33,7.214283999999999,87.27,35.89,1-2
13:15:33,7.1938,87.27,35.89,1-2
13:15:33,7.175877000000001,87.27,35.89,1-2
13:15:33,7.154112,87.27,35.89,1-2
13:15:34,7.136189,87.05,35.91,1-2
13:15:34,7.110583999999999,87.05,35.91,1-2
13:15:34,7.0901,87.05,35.91,1-2
13:15:34,7.077297,87.05,35.91,1-2
13:15:35,7.056813000000001,86.77,35.91,1-2
13:15:35,7.037610000000001,86.77,35.91,1-2
13:15:35,7.014564999999999,86.77,35.91,1-2
13:15:35,6.9915199999999995,86.77,35.91,1-2
13:15:36,6.982558999999999,86.55,35.91,1-2
13:15:36,6.972316999999999,86.55,35.91,1-2
13:15:36,6.958234,86.55,35.91,1-2
13:15:36,6.946712,86.55,35.91,1-2
13:15:37,6.9326289999999995,86.36,35.91,1-2
13:15:37,6.934603,86.36,35.91,1-2
13:15:37,6.914119,86.36,35.91,1-2
13:15:37,6.9089979999999995,86.36,35.91,1-2
13:15:38,6.905157000000001,86.13,35.89,1-2
13:15:38,6.923080000000001,86.13,35.89,1-2
13:15:38,6.96917,86.13,35.89,1-2
13:15:38,7.037023,86.13,35.89,1-2
13:15:39,7.067749000000001,85.96,35.89,1-2
13:15:39,7.079271,85.96,35.89,1-2
13:15:39,7.07287,85.96,35.89,1-2
13:15:39,7.060067999999999,85.96,35.89,1-2
13:15:40,7.030622,85.79,35.89,1-2
13:15:40,7.008857000000001,85.79,35.89,1-2
13:15:40,6.96917,85.79,35.89,1-2
13:15:40,6.9384440000000005,85.79,35.89,1-2
13:15:41,6.910278,85.69,35.89,1-2
13:15:41,6.885953,85.69,35.89,1-2
13:15:41,6.865469,85.69,35.89,1-2
13:15:41,6.851387,85.69,35.89,1-2
13:15:42,6.843705,85.68,35.89,1-2
13:15:42,6.844985,85.68,35.89,1-2
13:15:42,6.851387,85.68,35.89,1-2
13:15:42,6.875711,85.68,35.89,1-2
13:15:43,6.930762,85.73,35.89,1-2
13:15:43,7.02422,85.73,35.89,1-2
13:15:43,7.101036,85.73,35.89,1-2
13:15:43,7.134322,85.73,35.89,1-2
13:15:44,7.1407229999999995,85.87,35.89,1-2
13:15:44,7.133042,85.87,35.89,1-2
13:15:44,7.107436999999999,85.87,35.89,1-2
13:15:44,7.070310000000001,85.87,35.89,1-2
13:15:45,7.033182000000001,86.0,35.87,1-2
13:15:45,6.999896000000001,86.0,35.87,1-2
13:15:45,6.9678889999999996,86.0,35.87,1-2
13:15:45,6.943564,86.0,35.87,1-2
13:15:46,6.923080000000001,86.15,35.91,1-2
13:15:46,6.900036,86.15,35.91,1-2
13:15:46,6.883392999999999,86.15,35.91,1-2
13:15:46,6.865469,86.15,35.91,1-2
13:15:47,6.852666999999999,86.29,35.89,1-2
13:15:47,6.833463,86.29,35.89,1-2
13:15:47,6.815539,86.29,35.89,1-2
13:15:47,6.802737,86.29,35.89,1-2
13:15:48,6.791214,86.43,35.91,1-2
13:15:48,6.779692,86.43,35.91,1-2
13:15:48,6.774571000000001,86.43,35.91,1-2
13:15:48,6.7630490000000005,86.43,35.91,1-2
13:15:49,6.756647999999999,86.56,35.89,1-2
13:15:49,6.760489,86.56,35.89,1-2
13:15:49,6.760489,86.56,35.89,1-2
13:15:49,6.761769,86.56,35.89,1-2
13:15:50,6.756647999999999,86.67,35.91,1-2
13:15:50,6.756647999999999,86.67,35.91,1-2
13:15:50,6.766889999999999,86.67,35.91,1-2
13:15:50,6.779692,86.67,35.91,1-2
13:15:51,6.789935000000001,86.76,35.89,1-2
13:15:51,6.789935000000001,86.76,35.89,1-2
13:15:51,6.784813000000001,86.76,35.89,1-2
13:15:51,6.777132000000001,86.76,35.89,1-2
13:15:52,6.772011,86.83,35.91,1-2
13:15:52,6.766889999999999,86.83,35.91,1-2
13:15:52,6.764328999999999,86.83,35.91,1-2
13:15:52,6.7630490000000005,86.83,35.91,1-2
13:15:53,6.760489,86.8,35.89,1-2
13:15:53,6.752807000000001,86.8,35.89,1-2
13:15:53,6.7464059999999995,86.8,35.89,1-2
13:15:53,6.761769,86.8,35.89,1-2
13:15:54,6.792495,86.8,35.91,1-2
13:15:54,6.830903,86.8,35.91,1-2
13:15:54,6.878272,86.8,35.91,1-2
13:15:54,6.898756,86.8,35.91,1-2
13:15:55,6.914119,87.1,35.91,1-2
13:15:55,6.923080000000001,87.1,35.91,1-2
13:15:55,6.961488,87.1,35.91,1-2
13:15:55,7.028061,87.1,35.91,1-2
13:15:56,7.1035960000000005,87.1,35.93,1-2
13:15:56,7.168889,87.1,35.93,1-2
13:15:56,7.213698,87.1,35.93,1-2
13:15:56,7.22778,87.1,35.93,1-2
13:15:57,7.27387,87.57,35.93,1-2
13:15:57,7.349403999999999,87.57,35.93,1-2
13:15:57,7.4044550000000005,87.57,35.93,1-2
13:15:57,7.422378999999999,87.57,35.93,1-2
13:15:58,7.437048,87.65,35.95,1-2
13:15:58,7.411442999999999,87.65,35.95,1-2
13:15:58,7.365353999999999,87.65,35.95,1-2
13:15:58,7.309023,87.65,35.95,1-2
13:15:59,7.250132000000001,87.77,35.91,1-2
13:15:59,7.202762,87.77,35.91,1-2
13:15:59,7.154112,87.77,35.91,1-2
13:15:59,7.116985000000001,87.77,35.91,1-2
13:16:00,7.082418,87.87,35.91,1-2
13:16:00,7.0555330000000005,87.87,35.91,1-2
13:16:00,7.036328999999999,87.87,35.91,1-2
13:16:00,7.015845,87.87,35.91,1-2
13:16:01,6.997922,87.97,35.93,1-2
13:16:01,6.976158,87.97,35.93,1-2
13:16:01,6.963355,87.97,35.93,1-2
13:16:01,6.950552,87.97,35.93,1-2
13:16:02,6.939030000000001,88.05,35.91,1-2
13:16:02,6.928788000000001,88.05,35.91,1-2
13:16:02,6.919239999999999,88.05,35.91,1-2
13:16:02,6.9013160000000005,88.05,35.91,1-2
13:16:03,6.891074000000001,88.22,35.91,1-2
13:16:03,6.882113,88.22,35.91,1-2
13:16:03,6.884672999999999,88.22,35.91,1-2
13:16:03,6.870589999999999,88.22,35.91,1-2
13:16:04,6.892353999999999,88.35,35.93,1-2
13:16:04,6.8693100000000005,88.35,35.93,1-2
13:16:04,6.856507000000001,88.35,35.93,1-2
13:16:04,6.851387,88.35,35.93,1-2
13:16:05,6.844985,88.48,35.91,1-2
13:16:05,6.834743,88.48,35.91,1-2
13:16:05,6.8296220000000005,88.48,35.91,1-2
13:16:05,6.821941000000001,88.48,35.91,1-2
13:16:06,6.815539,88.65,35.91,1-2
13:16:06,6.824501,88.65,35.91,1-2
13:16:06,6.807858,88.65,35.91,1-2
13:16:06,6.792495,88.65,35.91,1-2
13:16:07,6.784813000000001,88.82,35.93,1-2
13:16:07,6.774571000000001,88.82,35.93,1-2
13:16:07,6.7630490000000005,88.82,35.93,1-2
13:16:07,6.757928,88.82,35.93,1-2
13:16:08,6.748966,89.0,35.91,1-2
13:16:08,6.740005,89.0,35.91,1-2
13:16:08,6.755367999999999,89.0,35.91,1-2
13:16:08,6.732322999999999,89.0,35.91,1-2
13:16:09,6.731043,89.27,35.89,1-2
13:16:09,6.719521,89.27,35.89,1-2
13:16:09,6.714399,89.27,35.89,1-2
13:16:09,6.707998,89.27,35.89,1-2
13:16:10,6.704157,89.58,35.87,1-2
13:16:10,6.696476,89.58,35.87,1-2
13:16:10,6.690075,89.58,35.87,1-2
13:16:10,6.704157,89.58,35.87,1-2
13:16:11,6.677272,89.87,35.87,1-2
13:16:11,6.6721509999999995,89.87,35.87,1-2
13:16:11,6.6670300000000005,89.87,35.87,1-2
13:16:11,6.678553,89.87,35.87,1-2
13:16:12,6.691355000000001,90.18,35.89,1-2
13:16:12,6.704157,90.18,35.89,1-2
13:16:12,6.729763,90.18,35.89,1-2
13:16:12,6.725922,90.18,35.89,1-2
13:16:13,6.734884,90.62,35.84,1-2
13:16:13,6.743844999999999,90.62,35.84,1-2
13:16:13,6.738724,90.62,35.84,1-2
13:16:13,6.731043,90.62,35.84,1-2
13:16:14,6.719521,91.0,35.89,1-2
13:16:14,6.7067179999999995,91.0,35.89,1-2
13:16:14,6.696476,91.0,35.89,1-2
13:16:14,6.690075,91.0,35.89,1-2
13:16:15,6.670871000000001,91.35,35.84,1-2
13:16:15,6.656788000000001,91.35,35.84,1-2
13:16:15,6.651667,91.35,35.84,1-2
13:16:15,6.638864999999999,91.35,35.84,1-2
13:16:16,6.631183,91.67,35.84,1-2
13:16:16,6.622221000000001,91.67,35.84,1-2
13:16:16,6.6055779999999995,91.67,35.84,1-2
13:16:16,6.591496,91.67,35.84,1-2
13:16:17,6.586374,91.95,35.87,1-2
13:16:17,6.579973,91.95,35.87,1-2
13:16:17,6.574852000000001,91.95,35.87,1-2
13:16:17,6.56589,91.95,35.87,1-2
13:16:18,6.558209,92.23,35.87,1-2
13:16:18,6.550527,92.23,35.87,1-2
13:16:18,6.567171000000001,92.23,35.87,1-2
13:16:18,6.542846,92.23,35.87,1-2
13:16:19,6.544126,92.53,35.87,1-2
13:16:19,6.551807,92.53,35.87,1-2
13:16:19,6.547967,92.53,35.87,1-2
13:16:19,6.555648,92.53,35.87,1-2
13:16:20,6.555648,92.87,35.89,1-2
13:16:20,6.549247,92.87,35.89,1-2
13:16:20,6.544126,92.87,35.89,1-2
13:16:20,6.5786929999999995,92.87,35.89,1-2
13:16:21,6.623502,93.17,35.87,1-2
13:16:21,6.705438000000001,93.17,35.87,1-2
13:16:21,6.807858,93.17,35.87,1-2
13:16:21,6.896195,93.17,35.87,1-2
13:16:22,6.951246,93.47,35.87,1-2
13:16:22,6.96917,93.47,35.87,1-2
13:16:22,6.96917,93.47,35.87,1-2
13:16:22,6.960208000000001,93.47,35.87,1-2
13:16:23,6.939724000000001,93.75,35.84,1-2
13:16:23,6.910278,93.75,35.84,1-2
13:16:23,6.898756,93.75,35.84,1-2
13:16:23,6.865469,93.75,35.84,1-2
13:16:24,6.843705,93.95,35.87,1-2
13:16:24,6.824501,93.95,35.87,1-2
13:16:24,6.814259,93.95,35.87,1-2
13:16:24,6.804017,93.95,35.87,1-2
13:16:25,6.8181,94.17,35.87,1-2
13:16:25,6.821941000000001,94.17,35.87,1-2
13:16:25,6.852666999999999,94.17,35.87,1-2
13:16:25,6.8744309999999995,94.17,35.87,1-2
13:16:26,6.878272,94.38,35.87,1-2
13:16:26,6.880832000000001,94.38,35.87,1-2
13:16:26,6.8744309999999995,94.38,35.87,1-2
13:16:26,6.892353999999999,94.38,35.87,1-2
13:16:27,6.919239999999999,94.5,35.87,1-2
13:16:27,6.949966000000001,94.5,35.87,1-2
13:16:27,6.965329,94.5,35.87,1-2
13:16:27,6.979412,94.5,35.87,1-2
13:16:28,6.9806919999999995,94.6,35.87,1-2
13:16:28,6.987092999999999,94.6,35.87,1-2
13:16:28,6.994775,94.6,35.87,1-2
13:16:28,7.02422,94.6,35.87,1-2
13:16:29,7.067749000000001,94.65,35.87,1-2
13:16:29,7.1061570000000005,94.65,35.87,1-2
13:16:29,7.134322,94.65,35.87,1-2
13:16:29,7.156086,94.65,35.87,1-2
13:16:30,7.142003999999999,94.68,35.84,1-2
13:16:30,7.157367,94.68,35.84,1-2
13:16:30,7.162488000000001,94.68,35.84,1-2
13:16:30,7.161208,94.68,35.84,1-2
13:16:31,7.147125,94.72,35.89,1-2
13:16:31,7.130481,94.72,35.89,1-2
13:16:31,7.1432839999999995,94.72,35.89,1-2
13:16:31,7.12408,94.72,35.89,1-2
13:16:32,7.133042,94.62,35.87,1-2
13:16:32,7.144564,94.62,35.87,1-2
13:16:32,7.1432839999999995,94.62,35.87,1-2
13:16:32,7.1356020000000004,94.62,35.87,1-2
13:16:33,7.115119,94.53,35.84,1-2
13:16:33,7.090794,94.53,35.84,1-2
13:16:33,7.098475,94.53,35.84,1-2
13:16:33,7.089513,94.53,35.84,1-2
13:16:34,7.109997,94.58,35.84,1-2
13:16:34,7.133042,94.58,35.84,1-2
13:16:34,7.149685000000001,94.58,35.84,1-2
13:16:34,7.152246000000001,94.58,35.84,1-2
13:16:35,7.1381630000000005,94.65,35.83,1-2
13:16:35,7.129200999999999,94.65,35.83,1-2
13:16:35,7.125360000000001,94.65,35.83,1-2
13:16:35,7.131761999999999,94.65,35.83,1-2
13:16:36,7.1407229999999995,94.65,35.87,1-2
13:16:36,7.1356020000000004,94.65,35.87,1-2
13:16:36,7.133042,94.65,35.87,1-2
13:16:36,7.121519999999999,94.65,35.87,1-2
13:16:37,7.102316,94.62,35.84,1-2
13:16:37,7.1061570000000005,94.62,35.84,1-2
13:16:37,7.186812,94.62,35.84,1-2
13:16:37,7.206016,94.62,35.84,1-2
13:16:38,7.238022,94.62,35.87,1-2
13:16:38,7.259786999999999,94.62,35.87,1-2
13:16:38,7.257225999999999,94.62,35.87,1-2
13:16:38,7.250825,94.62,35.87,1-2
13:16:39,7.2495449999999995,94.55,35.84,1-2
13:16:39,7.252105,94.55,35.84,1-2
13:16:39,7.250825,94.55,35.84,1-2
13:16:39,7.281550999999999,94.55,35.84,1-2
13:16:40,7.243144,94.48,35.83,1-2
13:16:40,7.22778,94.48,35.83,1-2
13:16:40,7.203456,94.48,35.83,1-2
13:16:40,7.17657,94.48,35.83,1-2
13:16:41,7.147125,94.42,35.84,1-2
13:16:41,7.120239,94.42,35.84,1-2
13:16:41,7.102316,94.42,35.84,1-2
13:16:41,7.083112,94.42,35.84,1-2
13:16:42,7.070310000000001,94.25,35.83,1-2
13:16:42,7.0664690000000006,94.25,35.83,1-2
13:16:42,7.052386,94.25,35.83,1-2
13:16:42,7.040864,94.25,35.83,1-2
13:16:43,7.026781,94.03,35.81,1-2
13:16:43,7.017819,94.03,35.81,1-2
13:16:43,7.016539,94.03,35.81,1-2
13:16:43,7.007577,94.03,35.81,1-2
13:16:44,7.002456,93.75,35.83,1-2
13:16:44,6.998614999999999,93.75,35.83,1-2
13:16:44,6.989653999999999,93.75,35.83,1-2
13:16:44,6.993494999999999,93.75,35.83,1-2
13:16:45,6.9806919999999995,93.48,35.87,1-2
13:16:45,6.9806919999999995,93.48,35.87,1-2
13:16:45,6.97173,93.48,35.87,1-2
13:16:45,6.9678889999999996,93.48,35.87,1-2
13:16:46,6.960208000000001,93.2,35.83,1-2
13:16:46,6.957647,93.2,35.83,1-2
13:16:46,6.973011,93.2,35.83,1-2
13:16:46,6.999896000000001,93.2,35.83,1-2
13:16:47,7.077991,92.87,35.83,1-2
13:16:47,7.221379,92.87,35.83,1-2
13:16:47,7.367328,92.87,35.83,1-2
13:16:47,7.47871,92.87,35.83,1-2
13:16:48,7.5637929999999995,92.53,35.81,1-2
13:16:48,7.574035,92.53,35.81,1-2
13:16:48,7.554832000000001,92.53,35.81,1-2
13:16:48,7.5241050000000005,92.53,35.81,1-2
13:16:49,7.467774,92.15,35.81,1-2
13:16:49,7.4178440000000005,92.15,35.81,1-2
13:16:49,7.379436999999999,92.15,35.81,1-2
13:16:49,7.344869999999999,92.15,35.81,1-2
13:16:50,7.314144000000001,91.73,35.84,1-2
13:16:50,7.300061,91.73,35.84,1-2
13:16:50,7.310303,91.73,35.84,1-2
13:16:50,7.293660000000001,91.73,35.84,1-2
13:16:51,7.270616,91.32,35.81,1-2
13:16:51,7.259092999999999,91.32,35.81,1-2
13:16:51,7.236049,91.32,35.81,1-2
13:16:51,7.218125,91.32,35.81,1-2
13:16:52,7.19252,91.02,35.81,1-2
13:16:52,7.170756,91.02,35.81,1-2
13:16:52,7.146431,91.02,35.81,1-2
13:16:52,7.142589999999999,91.02,35.81,1-2
13:16:53,7.122106,90.8,35.81,1-2
13:16:53,7.111864,90.8,35.81,1-2
13:16:53,7.102902,90.8,35.81,1-2
13:16:53,7.08882,90.8,35.81,1-2
13:16:54,7.079858,90.57,35.81,1-2
13:16:54,7.087539,90.57,35.81,1-2
13:16:54,7.14387,90.57,35.81,1-2
13:16:54,7.172036,90.57,35.81,1-2
13:16:55,7.207883,90.28,35.81,1-2
13:16:55,7.2283669999999995,90.28,35.81,1-2
13:16:55,7.221966,90.28,35.81,1-2
13:16:55,7.211724,90.28,35.81,1-2
13:16:56,7.19252,90.02,35.81,1-2
13:16:56,7.180998,90.02,35.81,1-2
13:16:56,7.142589999999999,90.02,35.81,1-2
13:16:56,7.137469,90.02,35.81,1-2
13:16:57,7.151552000000001,89.8,35.79,1-2
13:16:57,7.1835580000000006,89.8,35.79,1-2
13:16:57,7.201482,89.8,35.79,1-2
13:16:57,7.215565,89.8,35.79,1-2
13:16:58,7.2206850000000005,89.42,35.81,1-2
13:16:58,7.218125,89.42,35.81,1-2
13:16:58,7.2232460000000005,89.42,35.81,1-2
13:16:58,7.216844999999999,89.42,35.81,1-2
13:16:59,7.189960000000001,89.02,35.81,1-2
13:16:59,7.1694759999999995,89.02,35.81,1-2
13:16:59,7.155392999999999,89.02,35.81,1-2
13:16:59,7.147711,89.02,35.81,1-2
13:17:00,7.131067999999999,88.67,35.81,1-2
13:17:00,7.114425,88.67,35.81,1-2
13:17:00,7.1003419999999995,88.67,35.81,1-2
13:17:00,7.1003419999999995,88.67,35.81,1-2
13:17:01,7.087539,88.28,35.81,1-2
13:17:01,7.076017,88.28,35.81,1-2
13:17:01,7.070896,88.28,35.81,1-2
13:17:01,7.069616000000001,88.28,35.81,1-2
13:17:02,7.067055,87.88,35.81,1-2
13:17:02,7.068336,87.88,35.81,1-2
13:17:02,7.072176,87.88,35.81,1-2
13:17:02,7.083699,87.88,35.81,1-2
13:17:03,7.0901,87.45,35.81,1-2
13:17:03,7.09138,87.45,35.81,1-2
13:17:03,7.102902,87.45,35.81,1-2
13:17:03,7.09138,87.45,35.81,1-2
13:17:04,7.0901,87.03,35.84,1-2
13:17:04,7.082418,87.03,35.84,1-2
13:17:04,7.073457,87.03,35.84,1-2
13:17:04,7.061934,87.03,35.84,1-2
13:17:05,7.054253,86.63,35.81,1-2
13:17:05,7.042731,86.63,35.81,1-2
13:17:05,7.04017,86.63,35.81,1-2
13:17:05,7.032489,86.63,35.81,1-2
13:17:06,7.018406,86.3,35.81,1-2
13:17:06,7.0068839999999994,86.3,35.81,1-2
13:17:06,7.003042999999999,86.3,35.81,1-2
13:17:06,6.995361,86.3,35.81,1-2
13:17:07,6.992800999999999,85.95,35.83,1-2
13:17:07,6.992800999999999,85.95,35.83,1-2
13:17:07,6.985119,85.95,35.83,1-2
13:17:07,6.983839,85.95,35.83,1-2
13:17:08,6.978717999999999,85.6,35.81,1-2
13:17:08,6.972316999999999,85.6,35.81,1-2
13:17:08,6.964635,85.6,35.81,1-2
13:17:08,6.967196,85.6,35.81,1-2
13:17:09,6.979997999999999,85.25,35.83,1-2
13:17:09,7.010725,85.25,35.83,1-2
13:17:09,7.017125999999999,85.25,35.83,1-2
13:17:09,7.010725,85.25,35.83,1-2
13:17:10,7.005603,84.87,35.84,1-2
13:17:10,7.001761999999999,84.87,35.84,1-2
13:17:10,6.992800999999999,84.87,35.84,1-2
13:17:10,6.981278,84.87,35.84,1-2
13:17:11,6.9889600000000005,84.53,35.83,1-2
13:17:11,7.009444,84.53,35.83,1-2
13:17:11,7.051692,84.53,35.83,1-2
13:17:11,7.115705,84.53,35.83,1-2
13:17:12,7.187399,84.18,35.83,1-2
13:17:12,7.1963610000000005,84.18,35.83,1-2
13:17:12,7.209163,84.18,35.83,1-2
13:17:12,7.211724,84.18,35.83,1-2
13:17:13,7.19252,83.85,35.83,1-2
13:17:13,7.165635000000001,83.85,35.83,1-2
13:17:13,7.136189,83.85,35.83,1-2
13:17:13,7.109303,83.85,35.83,1-2
13:17:14,7.082418,83.57,35.83,1-2
13:17:14,7.063215,83.57,35.83,1-2
13:17:14,7.038889999999999,83.57,35.83,1-2
13:17:14,7.019686,83.57,35.83,1-2
13:17:15,7.009444,83.32,35.83,1-2
13:17:15,7.001761999999999,83.32,35.83,1-2
13:17:15,6.985119,83.32,35.83,1-2
13:17:15,6.990239999999999,83.32,35.83,1-2
13:17:16,6.964635,83.07,35.83,1-2
13:17:16,6.958234,83.07,35.83,1-2
13:17:16,6.950552,83.07,35.83,1-2
13:17:16,6.939030000000001,83.07,35.83,1-2
13:17:17,6.931349000000001,82.83,35.83,1-2
13:17:17,6.924361,82.83,35.83,1-2
13:17:17,6.914119,82.83,35.83,1-2
13:17:17,6.916678999999999,82.83,35.83,1-2
13:17:18,6.912838000000001,82.62,35.84,1-2
13:17:18,6.924361,82.62,35.84,1-2
13:17:18,6.973011,82.62,35.84,1-2
13:17:18,7.069029,82.62,35.84,1-2
13:17:19,7.157367,82.37,35.83,1-2
13:17:19,7.236742,82.37,35.83,1-2
13:17:19,7.302035000000001,82.37,35.83,1-2
13:17:19,7.355805999999999,82.37,35.83,1-2
13:17:20,7.399334,82.08,35.84,1-2
13:17:20,7.4275,82.08,35.84,1-2
13:17:20,7.454972,82.08,35.84,1-2
13:17:20,7.44473,82.08,35.84,1-2
13:17:21,7.426806,81.8,35.84,1-2
13:17:21,7.4357679999999995,81.8,35.84,1-2
13:17:21,7.484417,81.8,35.84,1-2
13:17:21,7.534348,81.8,35.84,1-2
13:17:22,7.5586720000000005,81.57,35.84,1-2
13:17:22,7.582997,81.57,35.84,1-2
13:17:22,7.5100229999999994,81.57,35.84,1-2
13:17:22,7.470335,81.57,35.84,1-2
13:17:23,7.449851,81.33,35.84,1-2
13:17:23,7.4357679999999995,81.33,35.84,1-2
13:17:23,7.438328,81.33,35.84,1-2
13:17:23,7.451131,81.33,35.84,1-2
13:17:24,7.460093,81.2,35.84,1-2
13:17:24,7.452411,81.2,35.84,1-2
13:17:24,7.429367,81.2,35.84,1-2
13:17:24,7.422966000000001,81.2,35.84,1-2
13:17:25,7.367914999999999,81.03,35.84,1-2
13:17:25,7.3346279999999995,81.03,35.84,1-2
13:17:25,7.306462,81.03,35.84,1-2
13:17:25,7.280858,81.03,35.84,1-2
13:17:26,7.265494,80.87,35.84,1-2
13:17:26,7.245010000000001,80.87,35.84,1-2
13:17:26,7.239889999999999,80.87,35.84,1-2
13:17:26,7.224525999999999,80.87,35.84,1-2
13:17:27,7.201482,80.8,35.84,1-2
13:17:27,7.19124,80.8,35.84,1-2
13:17:27,7.180998,80.8,35.84,1-2
13:17:27,7.177157000000001,80.8,35.84,1-2
13:17:28,7.165635000000001,80.73,35.84,1-2
13:17:28,7.156673,80.73,35.84,1-2
13:17:28,7.150272,80.73,35.84,1-2
13:17:28,7.148992,80.73,35.84,1-2
13:17:29,7.141310000000001,80.8,35.87,1-2
13:17:29,7.137469,80.8,35.87,1-2
13:17:29,7.1349089999999995,80.8,35.87,1-2
13:17:29,7.131067999999999,80.8,35.87,1-2
13:17:30,7.1297880000000005,80.87,35.84,1-2
13:17:30,7.146431,80.87,35.84,1-2
13:17:30,7.133628,80.87,35.84,1-2
13:17:30,7.13875,80.87,35.84,1-2
13:17:31,7.141310000000001,80.92,35.84,1-2
13:17:31,7.145150999999999,80.92,35.84,1-2
13:17:31,7.157953,80.92,35.84,1-2
13:17:31,7.163074000000001,80.92,35.84,1-2
13:17:32,7.170756,81.07,35.83,1-2
13:17:32,7.165635000000001,81.07,35.83,1-2
13:17:32,7.160514,81.07,35.83,1-2
13:17:32,7.148992,81.07,35.83,1-2
13:17:33,7.14387,81.18,35.84,1-2
13:17:33,7.14003,81.18,35.84,1-2
13:17:33,7.125947,81.18,35.84,1-2
13:17:33,7.116985000000001,81.18,35.84,1-2
13:17:34,7.105463,81.4,35.84,1-2
13:17:34,7.104183,81.4,35.84,1-2
13:17:34,7.157953,81.4,35.84,1-2
13:17:34,7.315424,81.4,35.84,1-2
13:17:35,7.538188000000001,81.67,35.84,1-2
13:17:35,7.772474000000001,81.67,35.84,1-2
13:17:35,7.881296000000001,81.67,35.84,1-2
13:17:35,7.896658,81.67,35.84,1-2
13:17:36,7.915863000000001,82.02,35.83,1-2
13:17:36,7.899219,82.02,35.83,1-2
13:17:36,7.831366,82.02,35.83,1-2
13:17:36,7.766073,82.02,35.83,1-2
13:17:37,7.764792,82.4,35.84,1-2
13:17:37,7.842888,82.4,35.84,1-2
13:17:37,7.927385000000001,82.4,35.84,1-2
13:17:37,8.016208,82.4,35.84,1-2
13:17:38,8.075099,82.7,35.83,1-2
13:17:38,8.041813000000001,82.7,35.83,1-2
13:17:38,8.007246,82.7,35.83,1-2
13:17:38,7.948353999999999,82.7,35.83,1-2
13:17:39,7.852335000000001,83.05,35.81,1-2
13:17:39,7.734552000000001,83.05,35.81,1-2
13:17:39,7.6346929999999995,83.05,35.81,1-2
13:17:39,7.646215,83.05,35.81,1-2
13:17:40,7.697425,83.42,35.84,1-2
13:17:40,7.775519999999999,83.42,35.84,1-2
13:17:40,7.897144,83.42,35.84,1-2
13:17:40,8.035411999999999,83.42,35.84,1-2
13:17:41,8.159595,83.75,35.84,1-2
13:17:41,8.258175,83.75,35.84,1-2
13:17:41,8.334991,83.75,35.84,1-2
13:17:41,8.38108,83.75,35.84,1-2
13:17:42,8.406685000000001,84.13,35.84,1-2
13:17:42,8.379799,84.13,35.84,1-2
13:17:42,8.400283,84.13,35.84,1-2
13:17:42,8.420767,84.13,35.84,1-2
13:17:43,8.482061,84.53,35.87,1-2
13:17:43,8.534552,84.53,35.87,1-2
13:17:43,8.588322999999999,84.53,35.87,1-2
13:17:43,8.610086,84.53,35.87,1-2
13:17:44,8.604965,84.9,35.87,1-2
13:17:44,8.579361,84.9,35.87,1-2
13:17:44,8.521749,84.9,35.87,1-2
13:17:44,8.462857000000001,84.9,35.87,1-2
13:17:45,8.407805999999999,85.27,35.87,1-2
13:17:45,8.366838000000001,85.27,35.87,1-2
13:17:45,8.397565,85.27,35.87,1-2
13:17:45,8.514068,85.27,35.87,1-2
13:17:46,8.699703999999999,85.67,35.84,1-2
13:17:46,8.859735,85.67,35.84,1-2
13:17:46,8.923748,85.67,35.84,1-2
13:17:46,8.958461999999999,85.67,35.84,1-2
13:17:47,8.940538,86.12,35.87,1-2
13:17:47,8.881646,86.12,35.87,1-2
13:17:47,8.830437,86.12,35.87,1-2
13:17:47,8.772825,86.12,35.87,1-2
13:17:48,8.720335,86.6,35.84,1-2
13:17:48,8.660163,86.6,35.84,1-2
13:17:48,8.612794000000001,86.6,35.84,1-2
13:17:48,8.583347999999999,86.6,35.84,1-2
13:17:49,8.565424,87.13,35.84,1-2
13:17:49,8.588469,87.13,35.84,1-2
13:17:49,8.656322,87.13,35.84,1-2
13:17:49,8.754902000000001,87.13,35.84,1-2
13:17:50,8.838118,87.73,35.87,1-2
13:17:50,8.879086000000001,87.73,35.87,1-2
13:17:50,8.886766999999999,87.73,35.87,1-2
13:17:50,8.932857,87.73,35.87,1-2
13:17:51,8.968703,88.35,35.84,1-2
13:17:51,8.993029,88.35,35.84,1-2
13:17:51,9.00199,88.35,35.84,1-2
13:17:51,8.993029,88.35,35.84,1-2
13:17:52,8.95078,88.85,35.81,1-2
13:17:52,8.903411,88.85,35.81,1-2
13:17:52,8.841959,88.85,35.81,1-2
13:17:52,8.783066999999999,88.85,35.81,1-2
13:17:53,8.731857000000002,89.27,35.83,1-2
13:17:53,8.679367,89.27,35.83,1-2
13:17:53,8.647361,89.27,35.83,1-2
13:17:53,8.624316,89.27,35.83,1-2
13:17:54,8.625596,89.67,35.81,1-2
13:17:54,8.589749000000001,89.67,35.81,1-2
13:17:54,8.587189,89.67,35.81,1-2
13:17:54,8.594871000000001,89.67,35.81,1-2
13:17:55,8.591028999999999,90.18,35.83,1-2
13:17:55,8.587189,90.18,35.83,1-2
13:17:55,8.630717,90.18,35.83,1-2
13:17:55,8.725456,90.18,35.83,1-2
13:17:56,8.829156,90.68,35.83,1-2
13:17:56,8.899569999999999,90.68,35.83,1-2
13:17:56,8.929016,90.68,35.83,1-2
13:17:56,8.903411,90.68,35.83,1-2
13:17:57,8.891889,91.12,35.83,1-2
13:17:57,8.861162,91.12,35.83,1-2
13:17:57,8.824036,91.12,35.83,1-2
13:17:57,8.802271000000001,91.12,35.83,1-2
13:17:58,8.811233,91.6,35.79,1-2
13:17:58,8.824036,91.6,35.79,1-2
13:17:58,8.822755,91.6,35.79,1-2
13:17:58,8.815073,91.6,35.79,1-2
13:17:59,8.799710000000001,92.08,35.77,1-2
13:17:59,8.781787,92.08,35.77,1-2
13:17:59,8.735698,92.08,35.77,1-2
13:17:59,8.721615,92.08,35.77,1-2
13:18:00,8.707532,92.53,35.79,1-2
13:18:00,8.684486999999999,92.53,35.79,1-2
13:18:00,8.669125,92.53,35.79,1-2
13:18:00,8.653762,92.53,35.79,1-2
13:18:01,8.638399,93.03,35.77,1-2
13:18:01,8.620475,93.03,35.77,1-2
13:18:01,8.602551,93.03,35.77,1-2
13:18:01,8.587189,93.03,35.77,1-2
13:18:02,8.569265,93.58,35.79,1-2
13:18:02,8.567985,93.58,35.79,1-2
13:18:02,8.570545,93.58,35.79,1-2
13:18:02,8.567985,93.58,35.79,1-2
13:18:03,8.562864,94.03,35.77,1-2
13:18:03,8.557742999999999,94.03,35.77,1-2
13:18:03,8.561584,94.03,35.77,1-2
13:18:03,8.544939999999999,94.03,35.77,1-2
13:18:04,8.537258999999999,94.48,35.75,1-2
13:18:04,8.533418,94.48,35.75,1-2
13:18:04,8.528297,94.48,35.75,1-2
13:18:04,8.524455999999999,94.48,35.75,1-2
13:18:05,8.518055,94.95,35.77,1-2
13:18:05,8.512934,94.95,35.77,1-2
13:18:05,8.506533000000001,94.95,35.77,1-2
13:18:05,8.506533000000001,94.95,35.77,1-2
13:18:06,8.500132,95.33,35.77,1-2
13:18:06,8.497571,95.33,35.77,1-2
13:18:06,8.484769,95.33,35.77,1-2
13:18:06,8.478367,95.33,35.77,1-2
13:18:07,8.461724,95.72,35.73,1-2
13:18:07,8.479648,95.72,35.73,1-2
13:18:07,8.320896000000001,95.72,35.73,1-2
13:18:07,8.095426,95.72,35.73,1-2
13:18:08,7.930273,96.07,35.75,1-2
13:18:08,7.917628,96.07,35.75,1-2
13:18:08,7.988042,96.07,35.75,1-2
13:18:08,8.034131,96.07,35.75,1-2
13:18:09,8.091743,96.32,35.75,1-2
13:18:09,8.174959,96.32,35.75,1-2
13:18:09,8.253055,96.32,35.75,1-2
13:18:09,8.265857,96.32,35.75,1-2
13:18:10,8.253055,96.58,35.75,1-2
13:18:10,8.228729,96.58,35.75,1-2
13:18:10,8.195443,96.58,35.75,1-2
13:18:10,8.191602,96.58,35.75,1-2
13:18:11,8.150634,96.83,35.68,1-2
13:18:11,8.13015,96.83,35.68,1-2
13:18:11,8.093022,96.83,35.68,1-2
13:18:11,8.059736000000001,96.83,35.68,1-2
13:18:12,8.014928,97.08,35.68,2-3
13:18:12,7.975239999999999,97.08,35.68,2-3
13:18:12,7.916347999999999,97.08,35.68,2-3
13:18:12,7.880501,97.08,35.68,2-3
13:18:13,7.848495,97.32,35.71,2-3
13:18:13,7.8344119999999995,97.32,35.71,2-3
13:18:13,7.804966,97.32,35.71,2-3
13:18:13,7.77296,97.32,35.71,2-3
13:18:14,7.734552000000001,97.53,35.68,2-3
13:18:14,7.692303999999999,97.53,35.68,2-3
13:18:14,7.647494999999999,97.53,35.68,2-3
13:18:14,7.605247,97.53,35.68,2-3
13:18:15,7.5655589999999995,97.73,35.68,2-3
13:18:15,7.523311,97.73,35.68,2-3
13:18:15,7.497705000000001,97.73,35.68,2-3
13:18:15,7.464419,97.73,35.68,2-3
13:18:16,7.434972999999999,97.92,35.66,2-3
13:18:16,7.408088,97.92,35.66,2-3
13:18:16,7.3832770000000005,97.92,35.66,2-3
13:18:16,7.349991,97.92,35.66,2-3
13:18:17,7.330787,98.13,35.65,2-3
13:18:17,7.333348,98.13,35.65,2-3
13:18:17,7.397360000000001,98.13,35.65,2-3
13:18:17,7.5241050000000005,98.13,35.65,2-3
13:18:18,7.655971000000001,98.35,35.63,2-3
13:18:18,7.750710000000001,98.35,35.63,2-3
13:18:18,7.799359,98.35,35.63,2-3
13:18:18,7.846728999999999,98.35,35.63,2-3
13:18:19,7.891538000000001,98.52,35.65,2-3
13:18:19,7.9043399999999995,98.52,35.65,2-3
13:18:19,7.876174000000001,98.52,35.65,2-3
13:18:19,7.826245,98.52,35.65,2-3
13:18:20,7.823684,98.68,35.66,2-3
13:18:20,7.722544,98.68,35.66,2-3
13:18:20,7.6674929999999994,98.68,35.66,2-3
13:18:20,7.903060000000001,98.68,35.66,2-3
13:18:21,7.946589,98.85,35.65,2-3
13:18:21,7.8958639999999995,98.85,35.65,2-3
13:18:21,7.8164880000000005,98.85,35.65,2-3
13:18:21,7.7652779999999995,98.85,35.65,2-3
13:18:22,7.861297,98.97,35.63,2-3
13:18:22,8.087902,98.97,35.63,2-3
13:18:22,8.23001,98.97,35.63,2-3
13:18:22,8.311946,98.97,35.63,2-3
13:18:23,8.351633999999999,99.13,35.63,2-3
13:18:23,8.359314999999999,99.13,35.63,2-3
13:18:23,8.369557,99.13,35.63,2-3
13:18:23,8.319628,99.13,35.63,2-3
13:18:24,8.263296,99.3,35.61,2-3
13:18:24,8.250494,99.3,35.61,2-3
13:18:24,8.342671000000001,99.3,35.61,2-3
13:18:24,8.479659,99.3,35.61,2-3
13:18:25,8.648494,99.4,35.59,2-3
13:18:25,8.700985000000001,99.4,35.59,2-3
13:18:25,8.690742,99.4,35.59,2-3
13:18:25,8.647214,99.4,35.59,2-3
13:18:26,8.584481,99.52,35.59,2-3
13:18:26,8.502545,99.52,35.59,2-3
13:18:26,8.465418,99.52,35.59,2-3
13:18:26,8.501266000000001,99.52,35.59,2-3
13:18:27,8.587042,99.58,35.61,2-3
13:18:27,8.666418,99.58,35.61,2-3
13:18:27,8.692022,99.58,35.61,2-3
13:18:27,8.674099,99.58,35.61,2-3
13:18:28,8.635692,99.68,35.59,2-3
13:18:28,8.644653,99.68,35.59,2-3
13:18:28,8.785480999999999,99.68,35.59,2-3
13:18:28,8.953195,99.68,35.59,2-3
13:18:29,9.117213000000001,99.68,35.59,2-3
13:18:29,9.213232000000001,99.68,35.59,2-3
13:18:29,9.194028,99.68,35.59,2-3
13:18:29,9.155621,99.68,35.59,2-3
13:18:30,9.073685000000001,99.7,35.57,2-3
13:18:30,8.973825,99.7,35.57,2-3
13:18:30,8.936697,99.7,35.57,2-3
13:18:30,8.899569999999999,99.7,35.57,2-3
13:18:31,8.902130999999999,99.72,35.57,2-3
13:18:31,8.894449,99.72,35.57,2-3
13:18:31,8.852200999999999,99.72,35.57,2-3
13:18:31,8.795869999999999,99.72,35.57,2-3
13:18:32,8.74594,99.72,35.57,2-3
13:18:32,8.711373,99.72,35.57,2-3
13:18:32,8.702411999999999,99.72,35.57,2-3
13:18:32,8.689608999999999,99.72,35.57,2-3
13:18:33,8.653762,99.77,35.55,2-3
13:18:33,8.637118,99.77,35.55,2-3
13:18:33,8.607673,99.77,35.55,2-3
13:18:33,8.566705,99.77,35.55,2-3
13:18:34,8.521894999999999,99.78,35.57,2-3
13:18:34,8.471966,99.78,35.57,2-3
13:18:34,8.425877,99.78,35.57,2-3
13:18:34,8.405247,99.78,35.57,2-3
13:18:35,8.384763000000001,99.8,35.57,2-3
13:18:35,8.368119,99.8,35.57,2-3
13:18:35,8.407805999999999,99.8,35.57,2-3
13:18:35,8.369399000000001,99.8,35.57,2-3
13:18:36,8.27338,99.77,35.53,2-3
13:18:36,8.339953,99.77,35.53,2-3
13:18:36,8.334832,99.77,35.53,2-3
13:18:36,8.415488,99.77,35.53,2-3
13:18:37,8.565278,99.72,35.53,2-3
13:18:37,8.771399,99.72,35.53,2-3
13:18:37,8.895583,99.72,35.53,2-3
13:18:37,8.93527,99.72,35.53,2-3
13:18:38,8.952061,99.75,35.55,2-3
13:18:38,8.889327999999999,99.75,35.55,2-3
13:18:38,8.868844000000001,99.75,35.55,2-3
13:18:38,8.841959,99.75,35.55,2-3
13:18:39,8.784348,99.8,35.53,2-3
13:18:39,8.744659,99.8,35.53,2-3
13:18:39,8.699850999999999,99.8,35.53,2-3
13:18:39,8.74338,99.8,35.53,2-3
13:18:40,8.730577,99.83,35.53,2-3
13:18:40,8.69857,99.83,35.53,2-3
13:18:40,8.671685,99.83,35.53,2-3
13:18:40,8.633278,99.83,35.53,2-3
13:18:41,8.629436,99.85,35.53,2-3
13:18:41,8.726736,99.85,35.53,2-3
13:18:41,8.815073,99.85,35.53,2-3
13:18:41,8.89829,99.85,35.53,2-3
13:18:42,8.987907,99.85,35.53,2-3
13:18:42,9.036557,99.85,35.53,2-3
13:18:42,9.073685000000001,99.85,35.53,2-3
13:18:42,9.054481,99.85,35.53,2-3
13:18:43,9.009672,99.88,35.53,2-3
13:18:43,8.968703,99.88,35.53,2-3
13:18:43,8.980226,99.88,35.53,2-3
13:18:43,8.937978,99.88,35.53,2-3
13:18:44,8.89829,99.93,35.5,2-3
13:18:44,8.839398,99.93,35.5,2-3
13:18:44,8.752341,99.93,35.5,2-3
13:18:44,8.684486999999999,99.93,35.5,2-3
13:18:45,8.599991000000001,99.97,35.5,2-3
13:18:45,8.519336000000001,99.97,35.5,2-3
13:18:45,8.43868,99.97,35.5,2-3
13:18:45,8.37068,99.97,35.5,2-3
13:18:46,8.329711999999999,99.93,35.5,2-3
13:18:46,8.306667,99.93,35.5,2-3
13:18:46,8.281062,99.93,35.5,2-3
13:18:46,8.27338,99.93,35.5,2-3
13:18:47,8.256737,99.87,35.49,2-3
13:18:47,8.247775,99.87,35.49,2-3
13:18:47,8.245214,99.87,35.49,2-3
13:18:47,8.251616,99.87,35.49,2-3
13:18:48,8.284903,99.78,35.5,2-3
13:18:48,8.327150999999999,99.78,35.5,2-3
13:18:48,8.386042999999999,99.78,35.5,2-3
13:18:48,8.405247,99.78,35.5,2-3
13:18:49,8.396285,99.7,35.49,2-3
13:18:49,8.384763000000001,99.7,35.49,2-3
13:18:49,8.371960000000001,99.7,35.49,2-3
13:18:49,8.350196,99.7,35.49,2-3
13:18:50,8.313068,99.62,35.47,2-3
13:18:50,8.263139,99.62,35.47,2-3
13:18:50,8.219610000000001,99.62,35.47,2-3
13:18:50,8.172239999999999,99.62,35.47,2-3
13:18:51,8.117189,99.6,35.47,2-3
13:18:51,8.0711,99.6,35.47,2-3
13:18:51,8.036534,99.6,35.47,2-3
13:18:51,8.007088000000001,99.6,35.47,2-3
13:18:52,7.981483,99.5,35.47,2-3
13:18:52,7.981483,99.5,35.47,2-3
13:18:52,8.003247,99.5,35.47,2-3
13:18:52,8.06598,99.5,35.47,2-3
13:18:53,8.128712,99.43,35.45,2-3
13:18:53,8.1684,99.43,35.45,2-3
13:18:53,8.167119999999999,99.43,35.45,2-3
13:18:53,8.147916,99.43,35.45,2-3
13:18:54,8.117189,99.4,35.43,2-3
13:18:54,8.11847,99.4,35.43,2-3
13:18:54,8.165839,99.4,35.43,2-3
13:18:54,8.226011,99.4,35.43,2-3
13:18:55,8.283623,99.3,35.45,2-3
13:18:55,8.31819,99.3,35.45,2-3
13:18:55,8.359158,99.3,35.45,2-3
13:18:55,8.420608999999999,99.3,35.45,2-3
13:18:56,8.444934,99.2,35.45,2-3
13:18:56,8.423169999999999,99.2,35.45,2-3
13:18:56,8.368119,99.2,35.45,2-3
13:18:56,8.325871000000001,99.2,35.45,2-3
13:18:57,8.260578,99.12,35.45,2-3
13:18:57,8.192724,99.12,35.45,2-3
13:18:57,8.121031,99.12,35.45,2-3
13:18:57,8.067260000000001,99.12,35.45,2-3
13:18:58,8.016049,99.03,35.45,2-3
13:18:58,7.9802029999999995,99.03,35.45,2-3
13:18:58,7.9405149999999995,99.03,35.45,2-3
13:18:58,7.9008270000000005,99.03,35.45,2-3
13:18:59,7.872819,98.95,35.41,2-3
13:18:59,7.880501,98.95,35.41,2-3
13:18:59,7.915067999999999,98.95,35.41,2-3
13:18:59,7.938111999999999,98.95,35.41,2-3
13:19:00,7.940672999999999,98.85,35.41,2-3
13:19:00,7.9227490000000005,98.85,35.41,2-3
13:19:00,7.899705,98.85,35.41,2-3
13:19:00,7.870259,98.85,35.41,2-3
13:19:01,7.861297,98.72,35.43,2-3
13:19:01,7.861297,98.72,35.43,2-3
13:19:01,7.8638580000000005,98.72,35.43,2-3
13:19:01,7.854896000000001,98.72,35.43,2-3
13:19:02,7.840813000000001,98.55,35.43,2-3
13:19:02,7.822889999999999,98.55,35.43,2-3
13:19:02,7.802405,98.55,35.43,2-3
13:19:02,7.771679,98.55,35.43,2-3
13:19:03,7.737113000000001,98.43,35.39,2-3
13:19:03,7.701266,98.43,35.39,2-3
13:19:03,7.676941,98.43,35.39,2-3
13:19:03,7.642374,98.43,35.39,2-3
13:19:04,7.612928,98.32,35.39,2-3
13:19:04,7.591164,98.32,35.39,2-3
13:19:04,7.580922,98.32,35.39,2-3
13:19:04,7.579642,98.32,35.39,2-3
13:19:05,7.575800999999999,98.18,35.39,2-3
13:19:05,7.562997999999999,98.18,35.39,2-3
13:19:05,7.541233999999999,98.18,35.39,2-3
13:19:05,7.51819,98.18,35.39,2-3
13:19:06,7.498986,98.02,35.39,2-3
13:19:06,7.484903,98.02,35.39,2-3
13:19:06,7.478502000000001,98.02,35.39,2-3
13:19:06,7.477221000000001,98.02,35.39,2-3
13:19:07,7.475941000000001,97.87,35.41,2-3
13:19:07,7.46698,97.87,35.41,2-3
13:19:07,7.465699000000001,97.87,35.41,2-3
13:19:07,7.455457000000001,97.87,35.41,2-3
13:19:08,7.442655,97.73,35.39,2-3
13:19:08,7.433692999999999,97.73,35.39,2-3
13:19:08,7.411929,97.73,35.39,2-3
13:19:08,7.397360000000001,97.73,35.39,2-3
13:19:09,7.370475,97.65,35.39,2-3
13:19:09,7.3512710000000006,97.65,35.39,2-3
13:19:09,7.333348,97.65,35.39,2-3
13:19:09,7.320545,97.65,35.39,2-3
13:19:10,7.316704,97.55,35.39,2-3
13:19:10,7.328227,97.55,35.39,2-3
13:19:10,7.3512710000000006,97.55,35.39,2-3
13:19:10,7.3640740000000005,97.55,35.39,2-3
13:19:11,7.357672999999999,97.45,35.39,2-3
13:19:11,7.370475,97.45,35.39,2-3
13:19:11,7.424246000000001,97.45,35.39,2-3
13:19:11,7.540749000000001,97.45,35.39,2-3
13:19:12,7.485697999999999,97.33,35.39,2-3
13:19:12,7.325666,97.33,35.39,2-3
13:19:12,7.262934,97.33,35.39,2-3
13:19:12,7.253972,97.33,35.39,2-3
13:19:13,7.215565,97.25,35.39,2-3
13:19:13,7.136189,97.25,35.39,2-3
13:19:13,7.0580940000000005,97.25,35.39,2-3
13:19:13,7.049132000000001,97.25,35.39,2-3
13:19:14,7.072176,97.15,35.41,2-3
13:19:14,7.0952210000000004,97.15,35.41,2-3
13:19:14,7.096500999999999,97.15,35.41,2-3
13:19:14,7.019686,97.15,35.41,2-3
13:19:15,6.933909,97.05,35.41,2-3
13:19:15,6.9038770000000005,97.05,35.41,2-3
13:19:15,6.893635000000001,97.05,35.41,2-3
13:19:15,6.870589999999999,97.05,35.41,2-3
13:19:16,6.846265,96.95,35.43,2-3
13:19:16,6.827062,96.95,35.43,2-3
13:19:16,6.7976160000000005,96.95,35.43,2-3
13:19:16,6.76945,96.95,35.43,2-3
13:19:17,6.754086999999999,96.83,35.43,2-3
13:19:17,6.736164,96.83,35.43,2-3
13:19:17,6.722081,96.83,35.43,2-3
13:19:17,6.7067179999999995,96.83,35.43,2-3
13:19:18,6.686234,96.75,35.47,2-3
13:19:18,6.670871000000001,96.75,35.47,2-3
13:19:18,6.649107000000001,96.75,35.47,2-3
13:19:18,6.633744,96.75,35.47,2-3
13:19:19,6.61326,96.77,35.43,2-3
13:19:19,6.590215,96.77,35.43,2-3
13:19:19,6.564610000000001,96.77,35.43,2-3
13:19:19,6.545406,96.77,35.43,2-3
13:19:20,6.532604,96.82,35.43,2-3
13:19:20,6.521081,96.82,35.43,2-3
13:19:20,6.515961,96.82,35.43,2-3
13:19:20,6.536445,96.82,35.43,2-3
13:19:21,6.636303999999999,96.9,35.43,2-3
13:19:21,6.650386999999999,96.9,35.43,2-3
13:19:21,6.66447,96.9,35.43,2-3
13:19:21,6.678553,96.9,35.43,2-3
13:19:22,6.6721509999999995,96.98,35.39,2-3
13:19:22,6.642705,96.98,35.39,2-3
13:19:22,6.6004570000000005,96.98,35.39,2-3
13:19:22,6.559489,96.98,35.39,2-3
13:19:23,6.51468,97.02,35.43,2-3
13:19:23,6.494196,97.02,35.43,2-3
13:19:23,6.485233999999999,97.02,35.43,2-3
13:19:23,6.522362,97.02,35.43,2-3
13:19:24,6.556928999999999,96.95,35.43,2-3
13:19:24,6.528763,96.95,35.43,2-3
13:19:24,6.483954,96.95,35.43,2-3
13:19:24,6.4353050000000005,96.95,35.43,2-3
13:19:25,6.41276,96.97,35.45,2-3
13:19:25,6.402518,96.97,35.45,2-3
13:19:25,6.3410660000000005,96.97,35.45,2-3
13:19:25,6.2130410000000005,96.97,35.45,2-3
13:19:26,6.187436,97.02,35.41,2-3
13:19:26,6.187436,97.02,35.41,2-3
13:19:26,6.236085,97.02,35.41,2-3
13:19:26,6.344907,97.02,35.41,2-3
13:19:27,6.498537000000001,97.13,35.41,2-3
13:19:27,6.402518,97.13,35.41,2-3
13:19:27,6.316741,97.13,35.41,2-3
13:19:27,6.266811,97.13,35.41,2-3
13:19:28,6.219442,97.23,35.45,2-3
13:19:28,6.165671,97.23,35.45,2-3
13:19:28,6.159269999999999,97.23,35.45,2-3
13:19:28,6.225843,97.23,35.45,2-3
13:19:29,6.214321,97.32,35.43,2-3
13:19:29,6.198958,97.32,35.43,2-3
13:19:29,6.20664,97.32,35.43,2-3
13:19:29,6.229684,97.32,35.43,2-3
13:19:30,6.2476080000000005,97.4,35.47,2-3
13:19:30,6.26041,97.4,35.47,2-3
13:19:30,6.255289,97.4,35.47,2-3
13:19:30,6.274493,97.4,35.47,2-3
13:19:31,6.273212,97.5,35.47,2-3
13:19:31,6.269372,97.5,35.47,2-3
13:19:31,6.238646,97.5,35.47,2-3
13:19:31,6.216882,97.5,35.47,2-3
13:19:32,6.136226000000001,97.63,35.45,2-3
13:19:32,6.009481,97.63,35.45,2-3
13:19:32,5.918583,97.63,35.45,2-3
13:19:32,5.8781930000000004,97.63,35.45,2-3
13:19:33,5.8807540000000005,97.68,35.47,2-3
13:19:33,5.755289,97.68,35.47,2-3
13:19:33,5.937084,97.68,35.47,2-3
13:19:33,6.1521669999999995,97.68,35.47,2-3
13:19:34,6.437663,97.75,35.47,2-3
13:19:34,6.663689999999999,97.75,35.47,2-3
13:19:34,6.9184589999999995,97.75,35.47,2-3
13:19:34,7.064408,97.75,35.47,2-3
13:19:35,7.2495449999999995,97.77,35.49,2-3
13:19:35,7.295634,97.77,35.49,2-3
13:19:35,7.318678,97.77,35.49,2-3
13:19:35,7.3238,97.77,35.49,2-3
13:19:36,7.291792999999999,97.85,35.49,2-3
13:19:36,7.2495449999999995,97.85,35.49,2-3
13:19:36,7.193214,97.85,35.49,2-3
13:19:36,7.1381630000000005,97.85,35.49,2-3
13:19:37,7.077991,97.93,35.47,2-3
13:19:37,7.0319020000000005,97.93,35.47,2-3
13:19:37,6.993494999999999,97.93,35.47,2-3
13:19:37,6.955087,97.93,35.47,2-3
13:19:38,6.924361,98.03,35.47,2-3
13:19:38,6.891074000000001,98.03,35.47,2-3
13:19:38,6.873150999999999,98.03,35.47,2-3
13:19:38,6.925641000000001,98.03,35.47,2-3
13:19:39,7.033182000000001,98.12,35.47,2-3
13:19:39,7.056227000000001,98.12,35.47,2-3
13:19:39,7.060067999999999,98.12,35.47,2-3
13:19:39,7.061348,98.12,35.47,2-3
13:19:40,7.0639080000000005,98.22,35.5,2-3
13:19:40,7.061348,98.22,35.5,2-3
13:19:40,7.058787,98.22,35.5,2-3
13:19:40,7.058787,98.22,35.5,2-3
13:19:41,7.052386,98.3,35.5,2-3
13:19:41,7.051106,98.3,35.5,2-3
13:19:41,7.0472649999999994,98.3,35.5,2-3
13:19:41,7.0498259999999995,98.3,35.5,2-3
13:19:42,7.044703999999999,98.38,35.5,2-3
13:19:42,7.0472649999999994,98.38,35.5,2-3
13:19:42,7.039584,98.38,35.5,2-3
13:19:42,7.0344619999999995,98.38,35.5,2-3
13:19:43,7.029342,98.4,35.53,2-3
13:19:43,7.025500999999999,98.4,35.53,2-3
13:19:43,7.030622,98.4,35.53,2-3
13:19:43,7.02038,98.4,35.53,2-3
13:19:44,7.0191,98.43,35.5,2-3
13:19:44,7.010138,98.43,35.5,2-3
13:19:44,7.011417999999999,98.43,35.5,2-3
13:19:44,7.008857000000001,98.43,35.5,2-3
13:19:45,7.016539,98.4,35.53,2-3
13:19:45,7.07543,98.4,35.53,2-3
13:19:45,7.213698,98.4,35.53,2-3
13:19:45,7.394213000000001,98.4,35.53,2-3
13:19:46,7.547842999999999,98.37,35.53,2-3
13:19:46,7.719983999999999,98.37,35.53,2-3
13:19:46,7.80192,98.37,35.53,2-3
13:19:46,7.844167999999999,98.37,35.53,2-3
13:19:47,7.8723339999999995,98.35,35.55,2-3
13:19:47,7.895378,98.35,35.55,2-3
13:19:47,7.841608,98.35,35.55,2-3
13:19:47,7.794239,98.35,35.55,2-3
13:19:48,7.899219,98.32,35.55,2-3
13:19:48,7.871053999999999,98.32,35.55,2-3
13:19:48,7.764792,98.32,35.55,2-3
13:19:48,7.675175,98.32,35.55,2-3
13:19:49,7.622684,98.28,35.55,2-3
13:19:49,7.479297,98.28,35.55,2-3
13:19:49,7.466494,98.28,35.55,2-3
13:19:49,7.397360000000001,98.28,35.55,2-3
13:19:50,7.335908,98.27,35.55,2-3
13:19:50,7.513863000000001,98.27,35.55,2-3
13:19:50,7.5637929999999995,98.27,35.55,2-3
13:19:50,7.594519,98.27,35.55,2-3
13:19:51,7.7583910000000005,98.2,35.53,2-3
13:19:51,7.85313,98.2,35.53,2-3
13:19:51,7.888977000000001,98.2,35.53,2-3
13:19:51,7.896658,98.2,35.53,2-3
13:19:52,7.882575999999999,98.15,35.55,2-3
13:19:52,7.865932000000001,98.15,35.55,2-3
13:19:52,7.858250999999999,98.15,35.55,2-3
13:19:52,7.846728999999999,98.15,35.55,2-3
13:19:53,7.839047,98.05,35.55,2-3
13:19:53,7.819843,98.05,35.55,2-3
13:19:53,7.807041000000001,98.05,35.55,2-3
13:19:53,7.809601,98.05,35.55,2-3
13:19:54,7.846728999999999,97.95,35.55,2-3
13:19:54,7.910741000000001,97.95,35.55,2-3
13:19:54,7.964511999999999,97.95,35.55,2-3
13:19:54,8.025169,97.95,35.55,2-3
13:19:55,8.050775,97.85,35.55,2-3
13:19:55,8.073819,97.85,35.55,2-3
13:19:55,8.094303,97.85,35.55,2-3
13:19:55,8.089182000000001,97.85,35.55,2-3
13:19:56,8.071259,97.97,35.59,2-3
13:19:56,8.052054,97.97,35.59,2-3
13:19:56,8.021329,97.97,35.59,2-3
13:19:56,7.986762,97.97,35.59,2-3
13:19:57,7.945794,98.1,35.57,2-3
13:19:57,7.900985,98.1,35.57,2-3
13:19:57,7.860017,98.1,35.57,2-3
13:19:57,7.8292910000000004,98.1,35.57,2-3
13:19:58,7.803686,98.23,35.57,2-3
13:19:58,7.77424,98.23,35.57,2-3
13:19:58,7.751195,98.23,35.57,2-3
13:19:58,7.735833,98.23,35.57,2-3
13:19:59,7.7255910000000005,98.48,35.57,2-3
13:19:59,7.761437,98.48,35.57,2-3
13:19:59,7.843374000000001,98.48,35.57,2-3
13:19:59,7.9598770000000005,98.48,35.57,2-3
13:20:00,8.057176,98.72,35.59,2-3
13:20:00,8.104545,98.72,35.59,2-3
13:20:00,8.119908,98.72,35.59,2-3
13:20:00,8.101985,98.72,35.59,2-3
13:20:01,8.071259,98.98,35.57,2-3
13:20:01,8.021329,98.98,35.57,2-3
13:20:01,7.968838000000001,98.98,35.57,2-3
13:20:01,7.920189,98.98,35.57,2-3
13:20:02,7.926589999999999,99.27,35.57,2-3
13:20:02,7.971399000000001,99.27,35.57,2-3
13:20:02,7.952195,99.27,35.57,2-3
13:20:02,7.997004,99.27,35.57,2-3
13:20:03,8.087902,99.53,35.59,2-3
13:20:03,8.132710000000001,99.53,35.59,2-3
13:20:03,8.148073,99.53,35.59,2-3
13:20:03,8.155755000000001,99.53,35.59,2-3
13:20:04,8.190322,99.82,35.59,2-3
13:20:04,8.247933,99.82,35.59,2-3
13:20:04,8.292742,99.82,35.59,2-3
13:20:04,8.311946,99.82,35.59,2-3
13:20:05,8.308105,100.12,35.59,2-3
13:20:05,8.288901,100.12,35.59,2-3
13:20:05,8.251774000000001,100.12,35.59,2-3
13:20:05,8.205685,100.12,35.59,2-3
13:20:06,8.159595,100.42,35.57,2-3
13:20:06,8.112226,100.42,35.57,2-3
13:20:06,8.043092999999999,100.42,35.57,2-3
13:20:06,8.002125,100.42,35.57,2-3
13:20:07,7.985482000000001,100.68,35.57,2-3
13:20:07,8.011086,100.68,35.57,2-3
13:20:07,8.093022,100.68,35.57,2-3
13:20:07,8.196723,100.68,35.57,2-3
13:20:08,8.224889,100.9,35.53,2-3
13:20:08,8.290181,100.9,35.53,2-3
13:20:08,8.295302000000001,100.9,35.53,2-3
13:20:08,8.273539,100.9,35.53,2-3
13:20:09,8.247933,101.12,35.55,2-3
13:20:09,8.219768,101.12,35.55,2-3
13:20:09,8.23385,101.12,35.55,2-3
13:20:09,8.297863000000001,101.12,35.55,2-3
13:20:10,8.373398,101.33,35.57,2-3
13:20:10,8.406685000000001,101.33,35.57,2-3
13:20:10,8.409245,101.33,35.57,2-3
13:20:10,8.395163,101.33,35.57,2-3
13:20:11,8.387481,101.58,35.57,2-3
13:20:11,8.38492,101.58,35.57,2-3
13:20:11,8.419487,101.58,35.57,2-3
13:20:11,8.502545,101.58,35.57,2-3
13:20:12,8.553756,101.85,35.57,2-3
13:20:12,8.580641,101.85,35.57,2-3
13:20:12,8.580641,101.85,35.57,2-3
13:20:12,8.570399,101.85,35.57,2-3
13:20:13,8.543513,102.07,35.55,2-3
13:20:13,8.508946,102.07,35.55,2-3
13:20:13,8.452616,102.07,35.55,2-3
13:20:13,8.414208,102.07,35.55,2-3
13:20:14,8.364278,102.22,35.57,2-3
13:20:14,8.32203,102.22,35.57,2-3
13:20:14,8.410366999999999,102.22,35.57,2-3
13:20:14,8.407805999999999,102.22,35.57,2-3
13:20:15,8.328431,102.33,35.55,2-3
13:20:15,8.154317,102.33,35.55,2-3
13:20:15,8.153037,102.33,35.55,2-3
13:20:15,7.911069,102.33,35.55,2-3
13:20:16,7.629571,102.43,35.57,2-3
13:20:16,7.584763000000001,102.43,35.57,2-3
13:20:16,7.584763000000001,102.43,35.57,2-3
13:20:16,7.5822020000000006,102.43,35.57,2-3
13:20:17,7.5655589999999995,102.52,35.55,2-3
13:20:17,7.2967059999999995,102.52,35.55,2-3
13:20:17,6.992800999999999,102.52,35.55,2-3
13:20:17,7.022246000000001,102.52,35.55,2-3
13:20:18,7.306462,102.58,35.55,2-3
13:20:18,7.305182,102.58,35.55,2-3
13:20:18,7.210443,102.58,35.55,2-3
13:20:18,7.253972,102.58,35.55,2-3
13:20:19,7.303902000000001,102.58,35.53,2-3
13:20:19,7.306462,102.58,35.53,2-3
13:20:19,7.264214,102.58,35.53,2-3
13:20:19,7.221966,102.58,35.53,2-3
13:20:20,7.156673,102.67,35.55,2-3
13:20:20,7.111864,102.67,35.55,2-3
13:20:20,7.050412,102.67,35.55,2-3
13:20:20,7.001761999999999,102.67,35.55,2-3
13:20:21,6.978717999999999,102.7,35.55,2-3
13:20:21,6.958234,102.7,35.55,2-3
13:20:21,6.944151,102.7,35.55,2-3
13:20:21,6.93775,102.7,35.55,2-3
13:20:22,6.927508,102.75,35.55,2-3
13:20:22,6.929482000000001,102.75,35.55,2-3
13:20:22,6.917960000000001,102.75,35.55,2-3
13:20:22,6.893635000000001,102.75,35.55,2-3
13:20:23,6.875711,102.82,35.53,2-3
13:20:23,6.853947,102.82,35.53,2-3
13:20:23,6.843705,102.82,35.53,2-3
13:20:23,6.827062,102.82,35.53,2-3
13:20:24,6.819380000000001,102.97,35.57,2-3
13:20:24,6.8129789999999995,102.97,35.57,2-3
13:20:24,6.802737,102.97,35.57,2-3
13:20:24,6.782253,102.97,35.57,2-3
13:20:25,6.756647999999999,103.12,35.53,2-3
13:20:25,6.731043,103.12,35.53,2-3
13:20:25,6.7092789999999995,103.12,35.53,2-3
13:20:25,6.693915,103.12,35.53,2-3
13:20:26,6.679833,103.2,35.55,2-3
13:20:26,6.675992,103.2,35.55,2-3
13:20:26,6.681113000000001,103.2,35.55,2-3
13:20:26,6.693915,103.2,35.55,2-3
13:20:27,6.693915,103.22,35.55,2-3
13:20:27,6.679833,103.22,35.55,2-3
13:20:27,6.661909,103.22,35.55,2-3
13:20:27,6.632463,103.22,35.55,2-3
13:20:28,6.6081389999999995,103.2,35.53,2-3
13:20:28,6.585094000000001,103.2,35.53,2-3
13:20:28,6.5633300000000006,103.2,35.53,2-3
13:20:28,6.546687,103.2,35.53,2-3
13:20:29,6.536445,103.15,35.55,2-3
13:20:29,6.521081,103.15,35.55,2-3
13:20:29,6.496757,103.15,35.55,2-3
13:20:29,6.4673110000000005,103.15,35.55,2-3
13:20:30,6.440426,103.13,35.55,2-3
13:20:30,6.423782,103.13,35.55,2-3
13:20:30,6.398676999999999,103.13,35.55,2-3
13:20:30,6.371792,103.13,35.55,2-3
13:20:31,6.353868,103.12,35.55,2-3
13:20:31,6.342346,103.12,35.55,2-3
13:20:31,6.3193019999999995,103.12,35.55,2-3
13:20:31,6.303939,103.12,35.55,2-3
13:20:32,6.2924169999999995,103.13,35.53,2-3
13:20:32,6.287294999999999,103.13,35.53,2-3
13:20:32,6.283455,103.13,35.53,2-3
13:20:32,6.293697,103.13,35.53,2-3
13:20:33,6.337225,103.02,35.55,2-3
13:20:33,6.428123,103.02,35.55,2-3
13:20:33,6.549747,103.02,35.55,2-3
13:20:33,6.636804,103.02,35.55,2-3
13:20:34,6.673932000000001,102.87,35.57,2-3
13:20:34,6.677772,102.87,35.57,2-3
13:20:34,6.656008,102.87,35.57,2-3
13:20:34,6.621441,102.87,35.57,2-3
13:20:35,6.580473,102.75,35.55,2-3
13:20:35,6.5510269999999995,102.75,35.55,2-3
13:20:35,6.525422,102.75,35.55,2-3
13:20:35,6.526701999999999,102.75,35.55,2-3
13:20:36,6.598397,102.57,35.53,2-3
13:20:36,6.657288,102.57,35.53,2-3
13:20:36,6.695696000000001,102.57,35.53,2-3
13:20:36,6.776350999999999,102.57,35.53,2-3
13:20:37,6.823721000000001,102.4,35.57,2-3
13:20:37,6.863409,102.4,35.57,2-3
13:20:37,6.999115,102.4,35.57,2-3
13:20:37,7.1432839999999995,102.4,35.57,2-3
13:20:38,7.27515,102.22,35.45,2-3
13:20:38,7.394213000000001,102.22,35.45,2-3
13:20:38,7.541442,102.22,35.45,2-3
13:20:38,7.691818,102.22,35.45,2-3
13:20:39,7.808321,102.05,35.45,2-3
13:20:39,7.871053999999999,102.05,35.45,2-3
13:20:39,7.9043399999999995,102.05,35.45,2-3
13:20:39,7.931225,102.05,35.45,2-3
13:20:40,7.967558,101.88,35.45,2-3
13:20:40,7.9598770000000005,101.88,35.45,2-3
13:20:40,7.939392999999999,101.88,35.45,2-3
13:20:40,7.956036,101.88,35.45,2-3
13:20:41,7.990602,101.75,35.45,2-3
13:20:41,8.090463,101.75,35.45,2-3
13:20:41,8.189042,101.75,35.45,2-3
13:20:41,8.267137,101.75,35.45,2-3
13:20:42,8.350353,101.63,35.41,2-3
13:20:42,8.469417,101.63,35.41,2-3
13:20:42,8.633131,101.63,35.41,2-3
13:20:42,8.784201,101.63,35.41,2-3
13:20:43,8.868697000000001,101.55,35.41,2-3
13:20:43,8.910946000000001,101.55,35.41,2-3
13:20:43,8.916067,101.55,35.41,2-3
13:20:43,8.921187,101.55,35.41,2-3
13:20:44,9.00199,101.45,35.43,2-3
13:20:44,9.055760000000001,101.45,35.43,2-3
13:20:44,9.071124000000001,101.45,35.43,2-3
13:20:44,9.064722999999999,101.45,35.43,2-3
13:20:45,9.023753999999998,101.42,35.41,2-3
13:20:45,8.971264,101.42,35.41,2-3
13:20:45,8.903411,101.42,35.41,2-3
13:20:45,8.826595,101.42,35.41,2-3
13:20:46,8.765143,101.42,35.41,2-3
13:20:46,8.710092999999999,101.42,35.41,2-3
13:20:46,8.655042,101.42,35.41,2-3
13:20:46,8.619195,101.42,35.41,2-3
13:20:47,8.615355000000001,101.43,35.41,2-3
13:20:47,8.685768,101.43,35.41,2-3
13:20:47,8.779226,101.43,35.41,2-3
13:20:47,8.849639999999999,101.43,35.41,2-3
13:20:48,8.882927,101.45,35.41,2-3
13:20:48,8.885488,101.45,35.41,2-3
13:20:48,8.861162,101.45,35.41,2-3
13:20:48,8.829156,101.45,35.41,2-3
13:20:49,8.780507,101.45,35.43,2-3
13:20:49,8.735698,101.45,35.43,2-3
13:20:49,8.69857,101.45,35.43,2-3
13:20:49,8.657602,101.45,35.43,2-3
13:20:50,8.620475,101.4,35.41,2-3
13:20:50,8.601272,101.4,35.41,2-3
13:20:50,8.620475,101.4,35.41,2-3
13:20:50,8.662724,101.4,35.41,2-3
13:20:51,8.707532,101.32,35.43,2-3
13:20:51,8.726736,101.32,35.43,2-3
13:20:51,8.731857000000002,101.32,35.43,2-3
13:20:51,8.707532,101.32,35.43,2-3
13:20:52,8.676806,101.28,35.39,2-3
13:20:52,8.653762,101.28,35.39,2-3
13:20:52,8.643519,101.28,35.39,2-3
13:20:52,8.652481,101.28,35.39,2-3
13:20:53,8.658883,101.25,35.41,2-3
13:20:53,8.685768,101.25,35.41,2-3
13:20:53,8.728016,101.25,35.41,2-3
13:20:53,8.760023,101.25,35.41,2-3
13:20:54,8.770265,101.2,35.37,2-3
13:20:54,8.763864,101.2,35.37,2-3
13:20:54,8.738258,101.2,35.37,2-3
13:20:54,8.69345,101.2,35.37,2-3
13:20:55,8.656322,101.15,35.37,2-3
13:20:55,8.620475,101.15,35.37,2-3
13:20:55,8.587189,101.15,35.37,2-3
13:20:55,8.582067,101.15,35.37,2-3
13:20:56,8.599991000000001,100.9,35.39,2-3
13:20:56,8.643519,100.9,35.39,2-3
13:20:56,8.651201,100.9,35.39,2-3
13:20:56,8.648641,100.9,35.39,2-3
13:20:57,8.6448,100.65,35.39,2-3
13:20:57,8.656322,100.65,35.39,2-3
13:20:57,8.670405,100.65,35.39,2-3
13:20:57,8.678086,100.65,35.39,2-3
13:20:58,8.660163,100.4,35.39,2-3
13:20:58,8.639679,100.4,35.39,2-3
13:20:58,8.603832,100.4,35.39,2-3
13:20:58,8.571826,100.4,35.39,2-3
13:20:59,8.529577,100.05,35.39,2-3
13:20:59,8.497571,100.05,35.39,2-3
13:20:59,8.478367,100.05,35.39,2-3
13:20:59,8.450202,100.05,35.39,2-3
13:21:00,8.418196,99.73,35.37,2-3
13:21:00,8.395004,99.73,35.37,2-3
13:21:00,8.382202000000001,99.73,35.37,2-3
13:21:00,8.292584,99.73,35.37,2-3
13:21:01,8.173521000000001,99.4,35.39,2-3
13:21:01,8.113349000000001,99.4,35.39,2-3
13:21:01,8.124871,99.4,35.39,2-3
13:21:01,8.105667,99.4,35.39,2-3
13:21:02,8.087744,99.1,35.41,2-3
13:21:02,8.087744,99.1,35.41,2-3
13:21:02,8.063419,99.1,35.41,2-3
13:21:02,8.028852,99.1,35.41,2-3
13:21:03,7.859858999999999,98.83,35.41,2-3
13:21:03,7.452897,98.83,35.41,2-3
13:21:03,7.679502,98.83,35.41,2-3
13:21:03,7.729431,98.83,35.41,2-3
13:21:04,7.735833,98.58,35.41,2-3
13:21:04,7.767839,98.58,35.41,2-3
13:21:04,7.842092999999999,98.58,35.41,2-3
13:21:04,7.8344119999999995,98.58,35.41,2-3
13:21:05,7.817769,98.33,35.45,2-3
13:21:05,7.803686,98.33,35.45,2-3
13:21:05,7.769119,98.33,35.45,2-3
13:21:05,7.696145,98.33,35.45,2-3
13:21:06,7.678221000000001,98.12,35.45,2-3
13:21:06,7.708947,98.12,35.45,2-3
13:21:06,7.743514,98.12,35.45,2-3
13:21:06,7.798564999999999,98.12,35.45,2-3
13:21:07,7.890743,97.93,35.49,2-3
13:21:07,8.045653,97.93,35.49,2-3
13:21:07,8.192883,97.93,35.49,2-3
13:21:07,8.249213000000001,97.93,35.49,2-3
13:21:08,8.276099,97.82,35.49,2-3
13:21:08,8.276099,97.82,35.49,2-3
13:21:08,8.253055,97.82,35.49,2-3
13:21:08,8.256895,97.82,35.49,2-3
13:21:09,8.241532000000001,97.72,35.49,2-3
13:21:09,8.171118,97.72,35.49,2-3
13:21:09,8.061016,97.72,35.49,2-3
13:21:09,8.02389,97.72,35.49,2-3
13:21:10,7.940672999999999,97.58,35.47,2-3
13:21:10,7.844653999999999,97.58,35.47,2-3
13:21:10,7.811367999999999,97.58,35.47,2-3
13:21:10,7.780641,97.58,35.47,2-3
13:21:11,7.760157,97.42,35.49,2-3
13:21:11,7.776801,97.42,35.49,2-3
13:21:11,7.807527,97.42,35.49,2-3
13:21:11,7.842092999999999,97.42,35.49,2-3
13:21:12,7.883061,97.22,35.49,2-3
13:21:12,7.930431,97.22,35.49,2-3
13:21:12,7.921469,97.22,35.49,2-3
13:21:12,7.8958639999999995,97.22,35.49,2-3
13:21:13,7.784482000000001,97.02,35.49,2-3
13:21:13,7.671819999999999,97.02,35.49,2-3
13:21:13,7.6346929999999995,97.02,35.49,2-3
13:21:13,7.589884,97.02,35.49,2-3
13:21:14,7.560438,96.93,35.45,2-3
13:21:14,7.505387,96.93,35.45,2-3
13:21:14,7.51691,96.93,35.45,2-3
13:21:14,7.537394,96.93,35.45,2-3
13:21:15,7.5335529999999995,96.88,35.47,2-3
13:21:15,7.5284320000000005,96.88,35.47,2-3
13:21:15,7.504107,96.88,35.47,2-3
13:21:15,7.484903,96.88,35.47,2-3
13:21:16,7.515629,96.83,35.45,2-3
13:21:16,7.527152,96.83,35.45,2-3
13:21:16,7.505387,96.83,35.45,2-3
13:21:16,7.487463000000001,96.83,35.45,2-3
13:21:17,7.438814,96.75,35.47,2-3
13:21:17,7.376082000000001,96.75,35.47,2-3
13:21:17,7.349991,96.75,35.47,2-3
13:21:17,7.319265,96.75,35.47,2-3
13:21:18,7.256533,96.63,35.47,2-3
13:21:18,7.2258070000000005,96.63,35.47,2-3
13:21:18,7.198921,96.63,35.47,2-3
13:21:18,7.1963610000000005,96.63,35.47,2-3
13:21:19,7.122106,96.55,35.45,2-3
13:21:19,7.118266,96.55,35.45,2-3
13:21:19,7.1349089999999995,96.55,35.45,2-3
13:21:19,7.1938,96.55,35.45,2-3
13:21:20,7.2552520000000005,96.37,35.47,2-3
13:21:20,7.307742999999999,96.37,35.47,2-3
13:21:20,7.325666,96.37,35.47,2-3
13:21:20,7.361513,96.37,35.47,2-3
13:21:21,7.376875999999999,96.07,35.47,2-3
13:21:21,7.347430999999999,96.07,35.47,2-3
13:21:21,7.3346279999999995,96.07,35.47,2-3
13:21:21,7.312864,96.07,35.47,2-3
13:21:22,7.241169,95.8,35.49,2-3
13:21:22,6.882699000000001,95.8,35.49,2-3
13:21:22,6.6695910000000005,95.8,35.49,2-3
13:21:22,6.7464059999999995,95.8,35.49,2-3
13:21:23,6.824501,95.48,35.45,2-3
13:21:23,6.774571000000001,95.48,35.45,2-3
13:21:23,6.773291,95.48,35.45,2-3
13:21:23,6.702878,95.48,35.45,2-3
13:21:24,6.700317,95.1,35.47,2-3
13:21:24,6.678553,95.1,35.47,2-3
13:21:24,6.7015970000000005,95.1,35.47,2-3
13:21:24,6.733603,95.1,35.47,2-3
13:21:25,6.8296220000000005,94.7,35.47,2-3
13:21:25,6.891074000000001,94.7,35.47,2-3
13:21:25,6.893635000000001,94.7,35.47,2-3
13:21:25,6.880832000000001,94.7,35.47,2-3
13:21:26,6.857788,94.3,35.45,2-3
13:21:26,6.833463,94.3,35.45,2-3
13:21:26,6.791214,94.3,35.45,2-3
13:21:26,6.7464059999999995,94.3,35.45,2-3
13:21:27,6.7092789999999995,93.95,35.45,2-3
13:21:27,6.670871000000001,93.95,35.45,2-3
13:21:27,6.6350240000000005,93.95,35.45,2-3
13:21:27,6.606858,93.95,35.45,2-3
13:21:28,6.585094000000001,93.45,35.47,2-3
13:21:28,6.556928999999999,93.45,35.47,2-3
13:21:28,6.535164,93.45,35.47,2-3
13:21:28,6.5121199999999995,93.45,35.47,2-3
13:21:29,6.495476999999999,93.02,35.47,2-3
13:21:29,6.490355,93.02,35.47,2-3
13:21:29,6.4775529999999995,93.02,35.47,2-3
13:21:29,6.46091,93.02,35.47,2-3
13:21:30,6.442986,92.57,35.47,2-3
13:21:30,6.425063,92.57,35.47,2-3
13:21:30,6.398676999999999,92.57,35.47,2-3
13:21:30,6.382034,92.57,35.47,2-3
13:21:31,6.365391000000001,92.05,35.45,2-3
13:21:31,6.344907,92.05,35.45,2-3
13:21:31,6.324423,92.05,35.45,2-3
13:21:31,6.306499,92.05,35.45,2-3
13:21:32,6.291136,91.53,35.45,2-3
13:21:32,6.282175,91.53,35.45,2-3
13:21:32,6.270652,91.53,35.45,2-3
13:21:32,6.255289,91.53,35.45,2-3
13:21:33,6.233525,91.27,35.49,2-3
13:21:33,6.205359,91.27,35.49,2-3
13:21:33,6.197678,91.27,35.49,2-3
13:21:33,6.186155,91.27,35.49,2-3
13:21:34,6.166951999999999,91.02,35.47,2-3
13:21:34,6.150309,91.02,35.47,2-3
13:21:34,6.129825,91.02,35.47,2-3
13:21:34,6.11062,91.02,35.47,2-3
13:21:35,6.092697,90.77,35.47,2-3
13:21:35,6.097818,90.77,35.47,2-3
13:21:35,6.085016,90.77,35.47,2-3
13:21:35,6.068372,90.77,35.47,2-3
13:21:36,6.061971,90.5,35.47,2-3
13:21:36,6.042768,90.5,35.47,2-3
13:21:36,6.035086,90.5,35.47,2-3
13:21:36,6.022283,90.5,35.47,2-3
13:21:37,6.0107610000000005,90.23,35.47,2-3
13:21:37,6.00692,90.23,35.47,2-3
13:21:37,5.991557,90.23,35.47,2-3
13:21:37,5.991557,90.23,35.47,2-3
13:21:38,5.982595,89.97,35.47,2-3
13:21:38,5.972353,89.97,35.47,2-3
13:21:38,5.959551,89.97,35.47,2-3
13:21:38,5.95315,89.97,35.47,2-3
13:21:39,5.944188,89.78,35.47,2-3
13:21:39,5.9710730000000005,89.78,35.47,2-3
13:21:39,6.028685,89.78,35.47,2-3
13:21:39,6.1042190000000005,89.78,35.47,2-3
13:21:40,6.174633,89.58,35.47,2-3
13:21:40,6.2104800000000004,89.58,35.47,2-3
13:21:40,6.228404,89.58,35.47,2-3
13:21:40,6.225843,89.58,35.47,2-3
13:21:41,6.227124,89.38,35.47,2-3
13:21:41,6.225843,89.38,35.47,2-3
13:21:41,6.278334,89.38,35.47,2-3
13:21:41,6.328263,89.38,35.47,2-3
13:21:42,5.983876,89.17,35.47,2-3
13:21:42,5.895538,89.17,35.47,2-3
13:21:42,5.946046,89.17,35.47,2-3
13:21:42,6.371090000000001,89.17,35.47,2-3
13:21:43,6.492714,88.95,35.47,2-3
13:21:43,6.570231,88.95,35.47,2-3
13:21:43,6.704658,88.95,35.47,2-3
13:21:43,6.874931,88.95,35.47,2-3
13:21:44,7.055447,88.83,35.47,2-3
13:21:44,7.308436,88.83,35.47,2-3
13:21:44,7.458226,88.83,35.47,2-3
13:21:44,7.554832000000001,88.83,35.47,2-3
13:21:45,7.607322,88.72,35.45,2-3
13:21:45,7.630366,88.72,35.45,2-3
13:21:45,7.70206,88.72,35.45,2-3
13:21:45,7.755831,88.72,35.45,2-3
13:21:46,7.776314999999999,88.6,35.43,2-3
13:21:46,7.751989999999999,88.6,35.43,2-3
13:21:46,7.70206,88.6,35.43,2-3
13:21:46,7.65085,88.6,35.43,2-3
13:21:47,7.589397999999999,88.48,35.45,2-3
13:21:47,7.534348,88.48,35.45,2-3
13:21:47,7.471614999999999,88.48,35.45,2-3
13:21:47,7.410163000000001,88.48,35.45,2-3
13:21:48,7.3691949999999995,88.35,35.45,2-3
13:21:48,7.375596000000001,88.35,35.45,2-3
13:21:48,7.4306470000000004,88.35,35.45,2-3
13:21:48,7.513863000000001,88.35,35.45,2-3
13:21:49,7.589397999999999,88.23,35.45,2-3
13:21:49,7.657251,88.23,35.45,2-3
13:21:49,7.70078,88.23,35.45,2-3
13:21:49,7.708462,88.23,35.45,2-3
13:21:50,7.709741999999999,88.13,35.45,2-3
13:21:50,7.716142999999999,88.13,35.45,2-3
13:21:50,7.740467999999999,88.13,35.45,2-3
13:21:50,7.762232000000001,88.13,35.45,2-3
13:21:51,7.781436,88.05,35.45,2-3
13:21:51,7.782716000000001,88.05,35.45,2-3
13:21:51,7.757111,88.05,35.45,2-3
13:21:51,7.723825,88.05,35.45,2-3
13:21:52,7.69822,88.02,35.47,2-3
13:21:52,7.681576,88.02,35.47,2-3
13:21:52,7.675175,88.02,35.47,2-3
13:21:52,7.65085,88.02,35.47,2-3
13:21:53,7.620124000000001,88.0,35.47,2-3
13:21:53,7.584277,88.0,35.47,2-3
13:21:53,7.556112,88.0,35.47,2-3
13:21:53,7.527946000000001,88.0,35.47,2-3
13:21:54,7.493378999999999,88.0,35.45,2-3
13:21:54,7.467774,88.0,35.45,2-3
13:21:54,7.434488000000001,88.0,35.45,2-3
13:21:54,7.414003999999999,88.0,35.45,2-3
13:21:55,7.388399000000001,88.02,35.45,2-3
13:21:55,7.370475,88.02,35.45,2-3
13:21:55,7.356392,88.02,35.45,2-3
13:21:55,7.34615,88.02,35.45,2-3
13:21:56,7.349991,88.0,35.49,2-3
13:21:56,7.3512710000000006,88.0,35.49,2-3
13:21:56,7.356392,88.0,35.49,2-3
13:21:56,7.367914999999999,88.0,35.49,2-3
13:21:57,7.381997,88.12,35.45,2-3
13:21:57,7.411442999999999,88.12,35.45,2-3
13:21:57,7.481857000000001,88.12,35.45,2-3
13:21:57,7.599639999999999,88.12,35.45,2-3
13:21:58,7.719983999999999,88.23,35.43,2-3
13:21:58,7.810882,88.23,35.43,2-3
13:21:58,7.859531,88.23,35.43,2-3
13:21:58,7.864652,88.23,35.43,2-3
13:21:59,7.845447999999999,88.35,35.45,2-3
13:21:59,7.807041000000001,88.35,35.45,2-3
13:21:59,7.751989999999999,88.35,35.45,2-3
13:21:59,7.69822,88.35,35.45,2-3
13:22:00,7.647009,88.43,35.49,2-3
13:22:00,7.602200999999999,88.43,35.49,2-3
13:22:00,7.566354,88.43,35.49,2-3
13:22:00,7.572755,88.43,35.49,2-3
13:22:01,7.644449000000001,88.5,35.47,2-3
13:22:01,7.75327,88.5,35.47,2-3
13:22:01,7.841608,88.5,35.47,2-3
13:22:01,7.896658,88.5,35.47,2-3
13:22:02,7.915863000000001,88.5,35.47,2-3
13:22:02,7.917142,88.5,35.47,2-3
13:22:02,7.892817999999999,88.5,35.47,2-3
13:22:02,7.850569999999999,88.5,35.47,2-3
13:22:03,7.80192,88.47,35.43,2-3
13:22:03,7.751989999999999,88.47,35.43,2-3
13:22:03,7.712302,88.47,35.43,2-3
13:22:03,7.6674929999999994,88.47,35.43,2-3
13:22:04,7.664933,88.4,35.45,2-3
13:22:04,7.7609520000000005,88.4,35.45,2-3
13:22:04,7.9017800000000005,88.4,35.45,2-3
13:22:04,8.017002,88.4,35.45,2-3
13:22:05,8.123749,88.3,35.45,2-3
13:22:05,8.153194000000001,88.3,35.45,2-3
13:22:05,8.145514,88.3,35.45,2-3
13:22:05,8.117348,88.3,35.45,2-3
13:22:06,8.068698,88.17,35.45,2-3
13:22:06,8.014928,88.17,35.45,2-3
13:22:06,7.972678999999999,88.17,35.45,2-3
13:22:06,7.943233,88.17,35.45,2-3
13:22:07,7.924028999999999,88.03,35.45,2-3
13:22:07,7.9086669999999994,88.03,35.45,2-3
13:22:07,7.884342,88.03,35.45,2-3
13:22:07,7.853616000000001,88.03,35.45,2-3
13:22:08,7.817769,87.9,35.45,2-3
13:22:08,7.784482000000001,87.9,35.45,2-3
13:22:08,7.746075,87.9,35.45,2-3
13:22:08,7.710227000000001,87.9,35.45,2-3
13:22:09,7.678221000000001,87.77,35.47,2-3
13:22:09,7.66926,87.77,35.47,2-3
13:22:09,7.714067999999999,87.77,35.47,2-3
13:22:09,7.798564999999999,87.77,35.47,2-3
13:22:10,7.877941000000001,87.68,35.47,2-3
13:22:10,7.929150999999999,87.68,35.47,2-3
13:22:10,7.939392999999999,87.68,35.47,2-3
13:22:10,7.934271000000001,87.68,35.47,2-3
13:22:11,7.912507000000001,87.6,35.45,2-3
13:22:11,7.924028999999999,87.6,35.45,2-3
13:22:11,7.953475,87.6,35.45,2-3
13:22:11,7.995724000000001,87.6,35.45,2-3
13:22:12,8.030291,87.55,35.45,2-3
13:22:12,8.036692,87.55,35.45,2-3
13:22:12,8.040532,87.55,35.45,2-3
13:22:12,8.040532,87.55,35.45,2-3
13:22:13,8.039252000000001,87.5,35.47,2-3
13:22:13,8.036692,87.5,35.47,2-3
13:22:13,8.020048,87.5,35.47,2-3
13:22:13,7.9918830000000005,87.5,35.47,2-3
13:22:14,7.958596000000001,87.42,35.45,2-3
13:22:14,7.913786999999999,87.42,35.45,2-3
13:22:14,7.87922,87.42,35.45,2-3
13:22:14,7.840813000000001,87.42,35.45,2-3
13:22:15,7.810086999999999,87.32,35.45,2-3
13:22:15,7.783202,87.32,35.45,2-3
13:22:15,7.77296,87.32,35.45,2-3
13:22:15,7.780641,87.32,35.45,2-3
13:22:16,7.7819210000000005,87.22,35.49,2-3
13:22:16,7.796003999999999,87.22,35.49,2-3
13:22:16,7.815208,87.22,35.49,2-3
13:22:16,7.8344119999999995,87.22,35.49,2-3
13:22:17,7.845934,87.13,35.47,2-3
13:22:17,7.835692,87.13,35.47,2-3
13:22:17,7.815208,87.13,35.47,2-3
13:22:17,7.798564999999999,87.13,35.47,2-3
13:22:18,7.792163,87.07,35.49,2-3
13:22:18,7.806246000000001,87.07,35.49,2-3
13:22:18,7.821609,87.07,35.49,2-3
13:22:18,7.852335000000001,87.07,35.49,2-3
13:22:19,7.9253100000000005,87.0,35.47,2-3
13:22:19,7.990602,87.0,35.47,2-3
13:22:19,8.021329,87.0,35.47,2-3
13:22:19,8.022609,87.0,35.47,2-3
13:22:20,8.011086,86.92,35.47,2-3
13:22:20,7.97652,86.92,35.47,2-3
13:22:20,7.941953,86.92,35.47,2-3
13:22:20,7.902264999999999,86.92,35.47,2-3
13:22:21,7.862577000000001,87.0,35.47,2-3
13:22:21,7.8318509999999995,87.0,35.47,2-3
13:22:21,7.802405,87.0,35.47,2-3
13:22:21,7.838253,87.0,35.47,2-3
13:22:22,7.995724000000001,87.05,35.45,2-3
13:22:22,8.206965,87.05,35.45,2-3
13:22:22,8.390041,87.05,35.45,2-3
13:22:22,8.479659,87.05,35.45,2-3
13:22:23,8.537111999999999,87.15,35.49,2-3
13:22:23,8.512788,87.15,35.49,2-3
13:22:23,8.492303999999999,87.15,35.49,2-3
13:22:23,8.462857000000001,87.15,35.49,2-3
13:22:24,8.427011,87.32,35.49,2-3
13:22:24,8.383482,87.32,35.49,2-3
13:22:24,8.325871000000001,87.32,35.49,2-3
13:22:24,8.26954,87.32,35.49,2-3
13:22:25,8.206807000000001,87.5,35.49,2-3
13:22:25,8.155598,87.5,35.49,2-3
13:22:25,8.096705,87.5,35.49,2-3
13:22:25,8.049336,87.5,35.49,2-3
13:22:26,8.008367999999999,87.7,35.47,2-3
13:22:26,7.981483,87.7,35.47,2-3
13:22:26,7.9674,87.7,35.47,2-3
13:22:26,7.953317999999999,87.7,35.47,2-3
13:22:27,7.9405149999999995,87.9,35.49,2-3
13:22:27,7.944355000000001,87.9,35.49,2-3
13:22:27,7.9674,87.9,35.49,2-3
13:22:27,7.993005,87.9,35.49,2-3
13:22:28,8.003247,88.28,35.47,2-3
13:22:28,7.991725,88.28,35.47,2-3
13:22:28,7.982763,88.28,35.47,2-3
13:22:28,7.959719000000001,88.28,35.47,2-3
13:22:29,7.934114,88.63,35.47,2-3
13:22:29,7.91747,88.63,35.47,2-3
13:22:29,7.892023,88.63,35.47,2-3
13:22:29,7.872819,88.63,35.47,2-3
13:22:30,7.856176,88.95,35.47,2-3
13:22:30,7.843374000000001,88.95,35.47,2-3
13:22:30,7.8318509999999995,88.95,35.47,2-3
13:22:30,7.820328999999999,88.95,35.47,2-3
13:22:31,7.808807000000001,89.32,35.47,2-3
13:22:31,7.802405,89.32,35.47,2-3
13:22:31,7.793444,89.32,35.47,2-3
13:22:31,7.804966,89.32,35.47,2-3
13:22:32,7.839533,89.65,35.49,2-3
13:22:32,7.8741,89.65,35.49,2-3
13:22:32,7.897144,89.65,35.49,2-3
13:22:32,7.904826,89.65,35.49,2-3
13:22:33,7.898425,89.92,35.49,2-3
13:22:33,7.884342,89.92,35.49,2-3
13:22:33,7.8741,89.92,35.49,2-3
13:22:33,7.858737,89.92,35.49,2-3
13:22:34,7.840813000000001,90.15,35.49,2-3
13:22:34,7.830571000000001,90.15,35.49,2-3
13:22:34,7.812647999999999,90.15,35.49,2-3
13:22:34,7.798564999999999,90.15,35.49,2-3
13:22:35,7.789603,90.38,35.49,2-3
13:22:35,7.778080999999999,90.38,35.49,2-3
13:22:35,7.769119,90.38,35.49,2-3
13:22:35,7.756317,90.38,35.49,2-3
13:22:36,7.756317,90.63,35.5,2-3
13:22:36,7.743514,90.63,35.5,2-3
13:22:36,7.737113000000001,90.63,35.5,2-3
13:22:36,7.733272,90.63,35.5,2-3
13:22:37,7.726871000000001,90.88,35.49,2-3
13:22:37,7.7281509999999995,90.88,35.49,2-3
13:22:37,7.756317,90.88,35.49,2-3
13:22:37,7.871539,90.88,35.49,2-3
13:22:38,8.02773,91.12,35.53,2-3
13:22:38,8.187761,91.12,35.53,2-3
13:22:38,8.295302000000001,91.12,35.53,2-3
13:22:38,8.349072999999999,91.12,35.53,2-3
13:22:39,8.354194,91.25,35.49,2-3
13:22:39,8.33243,91.25,35.49,2-3
13:22:39,8.304264,91.25,35.49,2-3
13:22:39,8.256895,91.25,35.49,2-3
13:22:40,8.200564,91.38,35.49,2-3
13:22:40,8.153194000000001,91.38,35.49,2-3
13:22:40,8.096864,91.38,35.49,2-3
13:22:40,8.053335,91.38,35.49,2-3
13:22:41,8.012367,91.5,35.47,2-3
13:22:41,7.979080000000001,91.5,35.47,2-3
13:22:41,7.949635000000001,91.5,35.47,2-3
13:22:41,7.9227490000000005,91.5,35.47,2-3
13:22:42,7.903544999999999,91.63,35.5,2-3
13:22:42,7.884342,91.63,35.5,2-3
13:22:42,7.8638580000000005,91.63,35.5,2-3
13:22:42,7.848495,91.63,35.5,2-3
13:22:43,7.835692,91.75,35.5,2-3
13:22:43,7.821609,91.75,35.5,2-3
13:22:43,7.8164880000000005,91.75,35.5,2-3
13:22:43,7.798564999999999,91.75,35.5,2-3
13:22:44,7.789603,91.77,35.5,2-3
13:22:44,7.784482000000001,91.77,35.5,2-3
13:22:44,7.77296,91.77,35.5,2-3
13:22:44,7.767839,91.77,35.5,2-3
13:22:45,7.767839,91.78,35.5,2-3
13:22:45,7.771679,91.78,35.5,2-3
13:22:45,7.77424,91.78,35.5,2-3
13:22:45,7.779361,91.78,35.5,2-3
13:22:46,7.778080999999999,91.78,35.5,2-3
13:22:46,7.771679,91.78,35.5,2-3
13:22:46,7.7652779999999995,91.78,35.5,2-3
13:22:46,7.7550360000000005,91.78,35.5,2-3
13:22:47,7.746075,91.78,35.5,2-3
13:22:47,7.731992,91.78,35.5,2-3
13:22:47,7.7230300000000005,91.78,35.5,2-3
13:22:47,7.714067999999999,91.78,35.5,2-3
13:22:48,7.705106,91.8,35.55,2-3
13:22:48,7.687183,91.8,35.55,2-3
13:22:48,7.687183,91.8,35.55,2-3
13:22:48,7.678221000000001,91.8,35.55,2-3
13:22:49,7.665419,91.8,35.5,2-3
13:22:49,7.662858,91.8,35.5,2-3
13:22:49,7.655177,91.8,35.5,2-3
13:22:49,7.646215,91.8,35.5,2-3
13:22:50,7.638533,91.82,35.53,2-3
13:22:50,7.628291,91.82,35.53,2-3
13:22:50,7.62189,91.82,35.53,2-3
13:22:50,7.619329,91.82,35.53,2-3
13:22:51,7.610367999999999,91.82,35.53,2-3
13:22:51,7.606527000000001,91.82,35.53,2-3
13:22:51,7.602686,91.82,35.53,2-3
13:22:51,7.5975649999999995,91.82,35.53,2-3
13:22:52,7.596285000000001,91.8,35.55,2-3
13:22:52,7.592444,91.8,35.55,2-3
13:22:52,7.606527000000001,91.8,35.55,2-3
13:22:52,7.6884630000000005,91.8,35.55,2-3
13:22:53,7.836972,91.78,35.55,2-3
13:22:53,8.000845,91.78,35.55,2-3
13:22:53,8.139111999999999,91.78,35.55,2-3
13:22:53,8.238972,91.78,35.55,2-3
13:22:54,8.28378,91.77,35.53,2-3
13:22:54,8.285061,91.77,35.53,2-3
13:22:54,8.258175,91.77,35.53,2-3
13:22:54,8.218488,91.77,35.53,2-3
13:22:55,8.167277,91.75,35.55,2-3
13:22:55,8.110947,91.75,35.55,2-3
13:22:55,8.058456,91.75,35.55,2-3
13:22:55,8.003406,91.75,35.55,2-3
13:22:56,7.958596000000001,91.75,35.57,2-3
13:22:56,7.912507000000001,91.75,35.57,2-3
13:22:56,7.87666,91.75,35.57,2-3
13:22:56,7.851055000000001,91.75,35.57,2-3
13:22:57,7.82545,91.65,35.57,2-3
13:22:57,7.807527,91.65,35.57,2-3
13:22:57,7.7972850000000005,91.65,35.57,2-3
13:22:57,7.801125999999999,91.65,35.57,2-3
13:22:58,7.804966,91.53,35.57,2-3
13:22:58,7.807527,91.53,35.57,2-3
13:22:58,7.820328999999999,91.53,35.57,2-3
13:22:58,7.867699000000001,91.53,35.57,2-3
13:22:59,7.930431,91.43,35.55,2-3
13:22:59,7.981641000000001,91.43,35.55,2-3
13:22:59,8.004685,91.43,35.55,2-3
13:22:59,8.002125,91.43,35.55,2-3
13:23:00,7.9893220000000005,91.37,35.57,2-3
13:23:00,7.970119,91.37,35.57,2-3
13:23:00,7.939392999999999,91.37,35.57,2-3
13:23:00,7.9086669999999994,91.37,35.57,2-3
13:23:01,7.87666,91.33,35.61,2-3
13:23:01,7.851055000000001,91.33,35.61,2-3
13:23:01,7.822889999999999,91.33,35.61,2-3
13:23:01,7.801125999999999,91.33,35.61,2-3
13:23:02,7.778080999999999,91.32,35.59,2-3
13:23:02,7.763998,91.32,35.59,2-3
13:23:02,7.752476,91.32,35.59,2-3
13:23:02,7.739673,91.32,35.59,2-3
13:23:03,7.726871000000001,91.3,35.59,2-3
13:23:03,7.7204690000000005,91.3,35.59,2-3
13:23:03,7.719189,91.3,35.59,2-3
13:23:03,7.705106,91.3,35.59,2-3
13:23:04,7.6935839999999995,91.25,35.57,2-3
13:23:04,7.680782000000001,91.25,35.57,2-3
13:23:04,7.680782000000001,91.25,35.57,2-3
13:23:04,7.670539999999999,91.25,35.57,2-3
13:23:05,7.664138,91.22,35.61,2-3
13:23:05,7.659018,91.22,35.61,2-3
13:23:05,7.651336,91.22,35.61,2-3
13:23:05,7.647494999999999,91.22,35.61,2-3
13:23:06,7.638533,91.18,35.61,2-3
13:23:06,7.6346929999999995,91.18,35.61,2-3
13:23:06,7.625731,91.18,35.61,2-3
13:23:06,7.62189,91.18,35.61,2-3
13:23:07,7.614209,91.15,35.59,2-3
13:23:07,7.606527000000001,91.15,35.59,2-3
13:23:07,7.601406,91.15,35.59,2-3
13:23:07,7.592444,91.15,35.59,2-3
13:23:08,7.587323,91.1,35.61,2-3
13:23:08,7.586042999999999,91.1,35.61,2-3
13:23:08,7.579642,91.1,35.61,2-3
13:23:08,7.578361999999999,91.1,35.61,2-3
13:23:09,7.57068,91.05,35.59,2-3
13:23:09,7.575800999999999,91.05,35.59,2-3
13:23:09,7.5681199999999995,91.05,35.59,2-3
13:23:09,7.562997999999999,91.05,35.59,2-3
13:23:10,7.555317,90.98,35.63,2-3
13:23:10,7.550196000000001,90.98,35.63,2-3
13:23:10,7.548916,90.98,35.63,2-3
13:23:10,7.543794999999999,90.98,35.63,2-3
13:23:11,7.537394,90.92,35.63,2-3
13:23:11,7.534833,90.92,35.63,2-3
13:23:11,7.5335529999999995,90.92,35.63,2-3
13:23:11,7.525871,90.92,35.63,2-3
13:23:12,7.51947,90.85,35.65,2-3
13:23:12,7.51947,90.85,35.65,2-3
13:23:12,7.51691,90.85,35.65,2-3
13:23:12,7.510508,90.85,35.65,2-3
13:23:13,7.509228,90.78,35.63,2-3
13:23:13,7.500266000000001,90.78,35.63,2-3
13:23:13,7.497705000000001,90.78,35.63,2-3
13:23:13,7.495145,90.78,35.63,2-3
13:23:14,7.4913039999999995,90.72,35.63,2-3
13:23:14,7.4887440000000005,90.72,35.63,2-3
13:23:14,7.483623,90.72,35.63,2-3
13:23:14,7.482342999999999,90.72,35.63,2-3
13:23:15,7.478502000000001,90.65,35.61,2-3
13:23:15,7.477221000000001,90.65,35.61,2-3
13:23:15,7.47082,90.65,35.61,2-3
13:23:15,7.469539999999999,90.65,35.61,2-3
13:23:16,7.46698,90.58,35.66,2-3
13:23:16,7.46698,90.58,35.66,2-3
13:23:16,7.460578,90.58,35.66,2-3
13:23:16,7.4592979999999995,90.58,35.66,2-3
13:23:17,7.472100999999999,90.53,35.66,2-3
13:23:17,7.509228,90.53,35.66,2-3
13:23:17,7.5655589999999995,90.53,35.66,2-3
13:23:17,7.620610000000001,90.53,35.66,2-3
13:23:18,7.6731,90.48,35.65,2-3
13:23:18,7.706386999999999,90.48,35.65,2-3
13:23:18,7.72175,90.48,35.65,2-3
13:23:18,7.719189,90.48,35.65,2-3
13:23:19,7.72175,90.43,35.66,2-3
13:23:19,7.784482000000001,90.43,35.66,2-3
13:23:19,7.939392999999999,90.43,35.66,2-3
13:23:19,8.136550999999999,90.43,35.66,2-3
13:23:20,8.297863000000001,90.4,35.66,2-3
13:23:20,8.369557,90.4,35.66,2-3
13:23:20,8.355474000000001,90.4,35.66,2-3
13:23:20,8.296583,90.4,35.66,2-3
13:23:21,8.278659,90.37,35.66,2-3
13:23:21,8.247933,90.37,35.66,2-3
13:23:21,8.296583,90.37,35.66,2-3
13:23:21,8.364436,90.37,35.66,2-3
13:23:22,8.459175,90.28,35.68,2-3
13:23:22,8.619048,90.28,35.68,2-3
13:23:22,8.735551,90.28,35.68,2-3
13:23:22,8.816207,90.28,35.68,2-3
13:23:23,8.836691,90.2,35.71,2-3
13:23:23,8.843093,90.2,35.71,2-3
13:23:23,8.816207,90.2,35.71,2-3
13:23:23,8.747073,90.2,35.71,2-3
13:23:24,8.697144,90.03,35.71,2-3
13:23:24,8.679219999999999,90.03,35.71,2-3
13:23:24,8.679219999999999,90.03,35.71,2-3
13:23:24,8.667698,90.03,35.71,2-3
13:23:25,8.645934,89.75,35.73,2-3
13:23:25,8.612647,89.75,35.73,2-3
13:23:25,8.572958999999999,89.75,35.73,2-3
13:23:25,8.530711,89.75,35.73,2-3
13:23:26,8.483342,89.48,35.71,2-3
13:23:26,8.434692,89.48,35.71,2-3
13:23:26,8.393724,89.48,35.71,2-3
13:23:26,8.361718,89.48,35.71,2-3
13:23:27,8.339953,89.25,35.71,2-3
13:23:27,8.311788,89.25,35.71,2-3
13:23:27,8.300265,89.25,35.71,2-3
13:23:27,8.325871000000001,89.25,35.71,2-3
13:23:28,8.391164,89.08,35.77,2-3
13:23:28,8.47438,89.08,35.77,2-3
13:23:28,8.528151,89.08,35.77,2-3
13:23:28,8.553756,89.08,35.77,2-3
13:23:29,8.549914,89.02,35.73,2-3
13:23:29,8.543513,89.02,35.73,2-3
13:23:29,8.526871,89.02,35.73,2-3
13:23:29,8.501266000000001,89.02,35.73,2-3
13:23:30,8.379642,89.0,35.77,2-3
13:23:30,7.976362,89.0,35.77,2-3
13:23:30,7.9750820000000004,89.0,35.77,2-3
13:23:30,7.96356,89.0,35.77,2-3
13:23:31,7.9379539999999995,88.95,35.73,2-3
13:23:31,8.009648,88.95,35.73,2-3
13:23:31,7.798407000000001,88.95,35.73,2-3
13:23:31,7.580922,88.95,35.73,2-3
13:23:32,7.779361,88.95,35.75,2-3
13:23:32,7.8664179999999995,88.95,35.75,2-3
13:23:32,7.787043,88.95,35.75,2-3
13:23:32,8.049494000000001,88.95,35.75,2-3
13:23:33,8.246653,89.03,35.75,2-3
13:23:33,8.38236,89.03,35.75,2-3
13:23:33,8.497582000000001,89.03,35.75,2-3
13:23:33,8.437253,89.03,35.75,2-3
13:23:34,8.398845,89.12,35.77,2-3
13:23:34,8.453896,89.12,35.77,2-3
13:23:34,8.4731,89.12,35.77,2-3
13:23:34,8.418049,89.12,35.77,2-3
13:23:35,8.528151,89.22,35.75,2-3
13:23:35,8.466699,89.22,35.75,2-3
13:23:35,8.378361,89.22,35.75,2-3
13:23:35,8.315629,89.22,35.75,2-3
13:23:36,8.190164,89.33,35.79,2-3
13:23:36,8.206807000000001,89.33,35.79,2-3
13:23:36,8.231133,89.33,35.79,2-3
13:23:36,8.140234,89.33,35.79,2-3
13:23:37,8.201686,89.42,35.77,2-3
13:23:37,8.213208,89.42,35.77,2-3
13:23:37,8.233692,89.42,35.77,2-3
13:23:37,8.264419,89.42,35.77,2-3
13:23:38,8.277221,89.53,35.79,2-3
13:23:38,8.295145,89.53,35.79,2-3
13:23:38,8.302826,89.53,35.79,2-3
13:23:38,8.293864,89.53,35.79,2-3
13:23:39,8.2721,89.62,35.81,2-3
13:23:39,8.279781,89.62,35.81,2-3
13:23:39,8.290024,89.62,35.81,2-3
13:23:39,8.287463,89.62,35.81,2-3
13:23:40,8.281062,89.7,35.77,2-3
13:23:40,8.278502,89.7,35.77,2-3
13:23:40,8.283623,89.7,35.77,2-3
13:23:40,8.274661,89.7,35.77,2-3
13:23:41,8.265699,89.78,35.77,2-3
13:23:41,8.251616,89.78,35.77,2-3
13:23:41,8.240094000000001,89.78,35.77,2-3
13:23:41,8.233692,89.78,35.77,2-3
13:23:42,8.224730000000001,89.83,35.79,3-4
13:23:42,8.215769,89.83,35.79,3-4
13:23:42,8.209368,89.83,35.79,3-4
13:23:42,8.201686,89.83,35.79,3-4
13:23:43,8.196566,89.9,35.79,3-4
13:23:43,8.192724,89.9,35.79,3-4
13:23:43,8.194005,89.9,35.79,3-4
13:23:43,8.191444,89.9,35.79,3-4
13:23:44,8.190164,89.97,35.77,3-4
13:23:44,8.194005,89.97,35.77,3-4
13:23:44,8.191444,89.97,35.77,3-4
13:23:44,8.183763,89.97,35.77,3-4
13:23:45,8.170960000000001,90.05,35.79,3-4
13:23:45,8.164558999999999,90.05,35.79,3-4
13:23:45,8.177361,90.05,35.79,3-4
13:23:45,8.222171000000001,90.05,35.79,3-4
13:23:46,8.296425,90.15,35.79,3-4
13:23:46,8.360437,90.15,35.79,3-4
13:23:46,8.396285,90.15,35.79,3-4
13:23:46,8.409087,90.15,35.79,3-4
13:23:47,8.423169999999999,90.25,35.79,3-4
13:23:47,8.411648,90.25,35.79,3-4
13:23:47,8.421889,90.25,35.79,3-4
13:23:47,8.451336,90.25,35.79,3-4
13:23:48,8.485902000000001,90.4,35.79,3-4
13:23:48,8.520469,90.4,35.79,3-4
13:23:48,8.531991,90.4,35.79,3-4
13:23:48,8.551195,90.4,35.79,3-4
13:23:49,8.570399,90.57,35.79,3-4
13:23:49,8.596003999999999,90.57,35.79,3-4
13:23:49,8.616488,90.57,35.79,3-4
13:23:49,8.619048,90.57,35.79,3-4
13:23:50,8.590883,90.72,35.81,3-4
13:23:50,8.57424,90.72,35.81,3-4
13:23:50,8.547355,90.72,35.81,3-4
13:23:50,8.510227,90.72,35.81,3-4
13:23:51,8.496144000000001,90.88,35.79,3-4
13:23:51,8.480782000000001,90.88,35.79,3-4
13:23:51,8.462857000000001,90.88,35.79,3-4
13:23:51,8.439814,90.88,35.79,3-4
13:23:52,8.428291,91.05,35.79,3-4
13:23:52,8.425730999999999,91.05,35.79,3-4
13:23:52,8.434692,91.05,35.79,3-4
13:23:52,8.443653999999999,91.05,35.79,3-4
13:23:53,8.462857000000001,91.22,35.79,3-4
13:23:53,8.478221000000001,91.22,35.79,3-4
13:23:53,8.480782000000001,91.22,35.79,3-4
13:23:53,8.484622,91.22,35.79,3-4
13:23:54,8.466699,91.38,35.79,3-4
13:23:54,8.444934,91.38,35.79,3-4
13:23:54,8.421889,91.38,35.79,3-4
13:23:54,8.400126,91.38,35.79,3-4
13:23:55,8.382202000000001,91.53,35.79,3-4
13:23:55,8.360437,91.53,35.79,3-4
13:23:55,8.342514,91.53,35.79,3-4
13:23:55,8.327150999999999,91.53,35.79,3-4
13:23:56,8.315629,91.7,35.79,3-4
13:23:56,8.306667,91.7,35.79,3-4
13:23:56,8.293864,91.7,35.79,3-4
13:23:56,8.283623,91.7,35.79,3-4
13:23:57,8.275941,91.83,35.79,3-4
13:23:57,8.268259,91.83,35.79,3-4
13:23:57,8.259297,91.83,35.79,3-4
13:23:57,8.249056,91.83,35.79,3-4
13:23:58,8.245214,91.98,35.77,3-4
13:23:58,8.245214,91.98,35.77,3-4
13:23:58,8.229852000000001,91.98,35.77,3-4
13:23:58,8.226011,91.98,35.77,3-4
13:23:59,8.219610000000001,92.1,35.79,3-4
13:23:59,8.215769,92.1,35.79,3-4
13:23:59,8.208088,92.1,35.79,3-4
13:23:59,8.202967,92.1,35.79,3-4
13:24:00,8.194005,92.15,35.77,3-4
13:24:00,8.194005,92.15,35.77,3-4
13:24:00,8.185042999999999,92.15,35.77,3-4
13:24:00,8.182483,92.15,35.77,3-4
13:24:01,8.170960000000001,92.17,35.79,3-4
13:24:01,8.1684,92.17,35.79,3-4
13:24:01,8.163279,92.17,35.79,3-4
13:24:01,8.155598,92.17,35.79,3-4
13:24:02,8.153037,92.15,35.79,3-4
13:24:02,8.142795,92.15,35.79,3-4
13:24:02,8.140234,92.15,35.79,3-4
13:24:02,8.131272000000001,92.15,35.79,3-4
13:24:03,8.124871,92.15,35.79,3-4
13:24:03,8.115910000000001,92.15,35.79,3-4
13:24:03,8.11975,92.15,35.79,3-4
13:24:03,8.101827,92.15,35.79,3-4
13:24:04,8.097986,92.15,35.77,3-4
13:24:04,8.096705,92.15,35.77,3-4
13:24:04,8.086464,92.15,35.77,3-4
13:24:04,8.081342999999999,92.15,35.77,3-4
13:24:05,8.078782,92.15,35.75,3-4
13:24:05,8.077502,92.15,35.75,3-4
13:24:05,8.076221,92.15,35.75,3-4
13:24:05,8.078782,92.15,35.75,3-4
13:24:06,8.074942,92.17,35.77,3-4
13:24:06,8.073661,92.17,35.77,3-4
13:24:06,8.067260000000001,92.17,35.77,3-4
13:24:06,8.062139,92.17,35.77,3-4
13:24:07,8.062139,92.18,35.77,3-4
13:24:07,8.064699000000001,92.18,35.77,3-4
13:24:07,8.0711,92.18,35.77,3-4
13:24:07,8.048055999999999,92.18,35.77,3-4
13:24:08,7.931553,92.2,35.75,3-4
13:24:08,7.888183000000001,92.2,35.75,3-4
13:24:08,7.888183000000001,92.2,35.75,3-4
13:24:08,7.9253100000000005,92.2,35.75,3-4
13:24:09,7.87666,92.22,35.73,3-4
13:24:09,7.8689789999999995,92.22,35.73,3-4
13:24:09,7.843374000000001,92.22,35.73,3-4
13:24:09,7.845934,92.22,35.73,3-4
13:24:10,7.854896000000001,92.27,35.73,3-4
13:24:10,7.8741,92.27,35.73,3-4
13:24:10,7.903544999999999,92.27,35.73,3-4
13:24:10,7.918908999999999,92.27,35.73,3-4
13:24:11,7.929150999999999,92.35,35.73,3-4
13:24:11,7.9253100000000005,92.35,35.73,3-4
13:24:11,7.915067999999999,92.35,35.73,3-4
13:24:11,7.900985,92.35,35.73,3-4
13:24:12,7.889463,92.42,35.73,3-4
13:24:12,7.871539,92.42,35.73,3-4
13:24:12,7.858737,92.42,35.73,3-4
13:24:12,7.840813000000001,92.42,35.73,3-4
13:24:13,7.833132000000001,92.48,35.73,3-4
13:24:13,7.820328999999999,92.48,35.73,3-4
13:24:13,7.806246000000001,92.48,35.73,3-4
13:24:13,7.793444,92.48,35.73,3-4
13:24:14,7.783202,92.55,35.73,3-4
13:24:14,7.77424,92.55,35.73,3-4
13:24:14,7.762718,92.55,35.73,3-4
13:24:14,7.749915,92.55,35.73,3-4
13:24:15,7.747355000000001,92.62,35.73,3-4
13:24:15,7.737113000000001,92.62,35.73,3-4
13:24:15,7.731992,92.62,35.73,3-4
13:24:15,7.724310000000001,92.62,35.73,3-4
13:24:16,7.715348,92.58,35.71,3-4
13:24:16,7.707667,92.58,35.71,3-4
13:24:16,7.698705,92.58,35.71,3-4
13:24:16,7.6884630000000005,92.58,35.71,3-4
13:24:17,7.682061999999999,92.53,35.71,3-4
13:24:17,7.675661,92.53,35.71,3-4
13:24:17,7.662858,92.53,35.71,3-4
13:24:17,7.657736999999999,92.53,35.71,3-4
13:24:18,7.652616,92.48,35.71,3-4
13:24:18,7.647494999999999,92.48,35.71,3-4
13:24:18,7.635973,92.48,35.71,3-4
13:24:18,7.628291,92.48,35.71,3-4
13:24:19,7.618049000000001,92.45,35.71,3-4
13:24:19,7.609087,92.45,35.71,3-4
13:24:19,7.602686,92.45,35.71,3-4
13:24:19,7.601406,92.45,35.71,3-4
13:24:20,7.591164,92.45,35.68,3-4
13:24:20,7.593725,92.45,35.68,3-4
13:24:20,7.584763000000001,92.45,35.68,3-4
13:24:20,7.578361999999999,92.45,35.68,3-4
13:24:21,7.579642,92.45,35.68,3-4
13:24:21,7.579642,92.45,35.68,3-4
13:24:21,7.571960000000001,92.45,35.68,3-4
13:24:21,7.562997999999999,92.45,35.68,3-4
13:24:22,7.559158,92.5,35.66,3-4
13:24:22,7.556597,92.5,35.66,3-4
13:24:22,7.550196000000001,92.5,35.66,3-4
13:24:22,7.547636,92.5,35.66,3-4
13:24:23,7.541233999999999,92.55,35.68,3-4
13:24:23,7.5335529999999995,92.55,35.68,3-4
13:24:23,7.534833,92.55,35.68,3-4
13:24:23,7.523311,92.55,35.68,3-4
13:24:24,7.51947,92.67,35.68,3-4
13:24:24,7.5066679999999995,92.67,35.68,3-4
13:24:24,7.498986,92.67,35.68,3-4
13:24:24,7.490024000000001,92.67,35.68,3-4
13:24:25,7.484903,92.9,35.68,3-4
13:24:25,7.482342999999999,92.9,35.68,3-4
13:24:25,7.473381,92.9,35.68,3-4
13:24:25,7.472100999999999,92.9,35.68,3-4
13:24:26,7.474661,93.12,35.66,3-4
13:24:26,7.465699000000001,93.12,35.66,3-4
13:24:26,7.4592979999999995,93.12,35.66,3-4
13:24:26,7.452897,93.12,35.66,3-4
13:24:27,7.449056,93.28,35.65,3-4
13:24:27,7.438814,93.28,35.65,3-4
13:24:27,7.433692999999999,93.28,35.65,3-4
13:24:27,7.427292,93.28,35.65,3-4
13:24:28,7.424246000000001,93.38,35.66,3-4
13:24:28,7.422966000000001,93.38,35.66,3-4
13:24:28,7.414003999999999,93.38,35.66,3-4
13:24:28,7.408883,93.38,35.66,3-4
13:24:29,7.408883,93.4,35.66,3-4
13:24:29,7.410163000000001,93.4,35.66,3-4
13:24:29,7.411442999999999,93.4,35.66,3-4
13:24:29,7.410163000000001,93.4,35.66,3-4
13:24:30,7.405042,93.37,35.65,3-4
13:24:30,7.3986410000000005,93.37,35.65,3-4
13:24:30,7.3986410000000005,93.37,35.65,3-4
13:24:30,7.389678999999999,93.37,35.65,3-4
13:24:31,7.380717,93.38,35.65,3-4
13:24:31,7.374316,93.38,35.65,3-4
13:24:31,7.362792999999999,93.38,35.65,3-4
13:24:31,7.357672999999999,93.38,35.65,3-4
13:24:32,7.3512710000000006,93.33,35.65,3-4
13:24:32,7.34615,93.33,35.65,3-4
13:24:32,7.338469,93.33,35.65,3-4
13:24:32,7.3320669999999994,93.33,35.65,3-4
13:24:33,7.325666,93.2,35.66,3-4
13:24:33,7.330787,93.2,35.66,3-4
13:24:33,7.264214,93.2,35.66,3-4
13:24:33,7.236049,93.2,35.66,3-4
13:24:34,7.273175999999999,93.07,35.65,3-4
13:24:34,7.278297,93.07,35.65,3-4
13:24:34,7.270616,93.07,35.65,3-4
13:24:34,7.277017,93.07,35.65,3-4
13:24:35,7.297501,92.92,35.65,3-4
13:24:35,7.348711,92.92,35.65,3-4
13:24:35,7.34359,92.92,35.65,3-4
13:24:35,7.34615,92.92,35.65,3-4
13:24:36,7.355111999999999,92.75,35.65,3-4
13:24:36,7.356392,92.75,35.65,3-4
13:24:36,7.34615,92.75,35.65,3-4
13:24:36,7.323106,92.75,35.65,3-4
13:24:37,7.314144000000001,92.62,35.65,3-4
13:24:37,7.300061,92.62,35.65,3-4
13:24:37,7.2911,92.62,35.65,3-4
13:24:37,7.278297,92.62,35.65,3-4
13:24:38,7.275736,92.47,35.66,3-4
13:24:38,7.279577000000001,92.47,35.66,3-4
13:24:38,7.2923800000000005,92.47,35.66,3-4
13:24:38,7.317985,92.47,35.66,3-4
13:24:39,7.323106,92.35,35.66,3-4
13:24:39,7.333348,92.35,35.66,3-4
13:24:39,7.333348,92.35,35.66,3-4
13:24:39,7.338469,92.35,35.66,3-4
13:24:40,7.328227,92.23,35.65,3-4
13:24:40,7.323106,92.23,35.65,3-4
13:24:40,7.300061,92.23,35.65,3-4
13:24:40,7.288539,92.23,35.65,3-4
13:24:41,7.274456,92.13,35.66,3-4
13:24:41,7.265494,92.13,35.66,3-4
13:24:41,7.253972,92.13,35.66,3-4
13:24:41,7.24373,92.13,35.66,3-4
13:24:42,7.246291,92.05,35.65,3-4
13:24:42,7.233488,92.05,35.65,3-4
13:24:42,7.229647,92.05,35.65,3-4
13:24:42,7.2258070000000005,92.05,35.65,3-4
13:24:43,7.213004,91.95,35.63,3-4
13:24:43,7.211724,91.95,35.63,3-4
13:24:43,7.216844999999999,91.95,35.63,3-4
13:24:43,7.209163,91.95,35.63,3-4
13:24:44,7.202762,91.85,35.68,3-4
13:24:44,7.1963610000000005,91.85,35.68,3-4
13:24:44,7.188679,91.85,35.68,3-4
13:24:44,7.1835580000000006,91.85,35.68,3-4
13:24:45,7.178437,91.73,35.66,3-4
13:24:45,7.173316000000001,91.73,35.66,3-4
13:24:45,7.1694759999999995,91.73,35.66,3-4
13:24:45,7.165635000000001,91.73,35.66,3-4
13:24:46,7.174596000000001,91.6,35.66,3-4
13:24:46,7.214283999999999,91.6,35.66,3-4
13:24:46,7.302622,91.6,35.66,3-4
13:24:46,7.412724000000001,91.6,35.66,3-4
13:24:47,7.513863000000001,91.47,35.65,3-4
13:24:47,7.580436,91.47,35.65,3-4
13:24:47,7.609882000000001,91.47,35.65,3-4
13:24:47,7.621405,91.47,35.65,3-4
13:24:48,7.613722999999999,91.27,35.66,3-4
13:24:48,7.594519,91.27,35.66,3-4
13:24:48,7.568914,91.27,35.66,3-4
13:24:48,7.550991000000001,91.27,35.66,3-4
13:24:49,7.527946000000001,91.07,35.66,3-4
13:24:49,7.512583,91.07,35.66,3-4
13:24:49,7.488258,91.07,35.66,3-4
13:24:49,7.474175,91.07,35.66,3-4
13:24:50,7.44857,90.88,35.66,3-4
13:24:50,7.452411,90.88,35.66,3-4
13:24:50,7.471614999999999,90.88,35.66,3-4
13:24:50,7.521545,90.88,35.66,3-4
13:24:51,7.589397999999999,90.7,35.66,3-4
13:24:51,7.631647,90.7,35.66,3-4
13:24:51,7.648289999999999,90.7,35.66,3-4
13:24:51,7.645728999999999,90.7,35.66,3-4
13:24:52,7.620124000000001,90.52,35.66,3-4
13:24:52,7.595799,90.52,35.66,3-4
13:24:52,7.566354,90.52,35.66,3-4
13:24:52,7.533067,90.52,35.66,3-4
13:24:53,7.4972199999999996,90.32,35.68,3-4
13:24:53,7.472894999999999,90.32,35.68,3-4
13:24:53,7.44601,90.32,35.68,3-4
13:24:53,7.4332080000000005,90.32,35.68,3-4
13:24:54,7.422966000000001,90.13,35.68,3-4
13:24:54,7.414003999999999,90.13,35.68,3-4
13:24:54,7.397360000000001,90.13,35.68,3-4
13:24:54,7.384558,90.13,35.68,3-4
13:24:55,7.3691949999999995,89.95,35.66,3-4
13:24:55,7.358953,89.95,35.66,3-4
13:24:55,7.339749,89.95,35.66,3-4
13:24:55,7.333348,89.95,35.66,3-4
13:24:56,7.307742999999999,89.77,35.68,3-4
13:24:56,7.29622,89.77,35.68,3-4
13:24:56,7.287259,89.77,35.68,3-4
13:24:56,7.277017,89.77,35.68,3-4
13:24:57,7.269335000000001,89.58,35.66,3-4
13:24:57,7.2578130000000005,89.58,35.66,3-4
13:24:57,7.251411,89.58,35.66,3-4
13:24:57,7.24245,89.58,35.66,3-4
13:24:58,7.234767999999999,89.38,35.68,3-4
13:24:58,7.221966,89.38,35.68,3-4
13:24:58,7.218125,89.38,35.68,3-4
13:24:58,7.216844999999999,89.38,35.68,3-4
13:24:59,7.221966,89.2,35.68,3-4
13:24:59,7.2552520000000005,89.2,35.68,3-4
13:24:59,7.311584,89.2,35.68,3-4
13:24:59,7.367914999999999,89.2,35.68,3-4
13:25:00,7.3948,89.08,35.68,3-4
13:25:00,7.407602000000001,89.08,35.68,3-4
13:25:00,7.408883,89.08,35.68,3-4
13:25:00,7.3948,89.08,35.68,3-4
13:25:01,7.371755,89.0,35.66,3-4
13:25:01,7.348711,89.0,35.66,3-4
13:25:01,7.320545,89.0,35.66,3-4
13:25:01,7.29622,89.0,35.66,3-4
13:25:02,7.271896000000001,88.95,35.66,3-4
13:25:02,7.252692,88.95,35.66,3-4
13:25:02,7.236049,88.95,35.66,3-4
13:25:02,7.219405,88.95,35.66,3-4
13:25:03,7.205323,88.92,35.71,3-4
13:25:03,7.200202,88.92,35.71,3-4
13:25:03,7.1938,88.92,35.71,3-4
13:25:03,7.178437,88.92,35.71,3-4
13:25:04,7.173316000000001,88.92,35.68,3-4
13:25:04,7.160514,88.92,35.68,3-4
13:25:04,7.155392999999999,88.92,35.68,3-4
13:25:04,7.145150999999999,88.92,35.68,3-4
13:25:05,7.136189,88.92,35.68,3-4
13:25:05,7.137469,88.92,35.68,3-4
13:25:05,7.120825999999999,88.92,35.68,3-4
13:25:05,7.115705,88.92,35.68,3-4
13:25:06,7.108024,88.92,35.68,3-4
13:25:06,7.104183,88.92,35.68,3-4
13:25:06,7.0952210000000004,88.92,35.68,3-4
13:25:06,7.09266,88.92,35.68,3-4
13:25:07,7.093941,88.92,35.66,3-4
13:25:07,7.113144,88.92,35.66,3-4
13:25:07,7.1323479999999995,88.92,35.66,3-4
13:25:07,7.195081,88.92,35.66,3-4
13:25:08,7.293660000000001,88.9,35.66,3-4
13:25:08,7.39608,88.9,35.66,3-4
13:25:08,7.4626529999999995,88.9,35.66,3-4
13:25:08,7.4946589999999995,88.9,35.66,3-4
13:25:09,7.507461999999999,88.87,35.66,3-4
13:25:09,7.501061,88.87,35.66,3-4
13:25:09,7.5241050000000005,88.87,35.66,3-4
13:25:09,7.542028999999999,88.87,35.66,3-4
13:25:10,7.554832000000001,88.78,35.68,3-4
13:25:10,7.5637929999999995,88.78,35.68,3-4
13:25:10,7.525385000000001,88.78,35.68,3-4
13:25:10,7.421685000000001,88.78,35.68,3-4
13:25:11,7.270616,88.65,35.66,3-4
13:25:11,7.311584,88.65,35.66,3-4
13:25:11,7.374316,88.65,35.66,3-4
13:25:11,7.415284,88.65,35.66,3-4
13:25:12,7.439609,88.45,35.68,3-4
13:25:12,7.467774,88.45,35.68,3-4
13:25:12,7.485697999999999,88.45,35.68,3-4
13:25:12,7.479297,88.45,35.68,3-4
13:25:13,7.451131,88.25,35.68,3-4
13:25:13,7.437048,88.25,35.68,3-4
13:25:13,7.426806,88.25,35.68,3-4
13:25:13,7.402482000000001,88.25,35.68,3-4
13:25:14,7.380717,88.03,35.68,3-4
13:25:14,7.353832000000001,88.03,35.68,3-4
13:25:14,7.330787,88.03,35.68,3-4
13:25:14,7.307742999999999,88.03,35.68,3-4
13:25:15,7.293660000000001,87.83,35.68,3-4
13:25:15,7.280858,87.83,35.68,3-4
13:25:15,7.265494,87.83,35.68,3-4
13:25:15,7.251411,87.83,35.68,3-4
13:25:16,7.241169,87.75,35.66,3-4
13:25:16,7.2283669999999995,87.75,35.66,3-4
13:25:16,7.2206850000000005,87.75,35.66,3-4
13:25:16,7.209163,87.75,35.66,3-4
13:25:17,7.1938,87.68,35.66,3-4
13:25:17,7.179717999999999,87.68,35.66,3-4
13:25:17,7.168195,87.68,35.66,3-4
13:25:17,7.157953,87.68,35.66,3-4
13:25:18,7.152832000000001,87.62,35.68,3-4
13:25:18,7.165635000000001,87.62,35.68,3-4
13:25:18,7.0977820000000005,87.62,35.68,3-4
13:25:18,7.078578,87.62,35.68,3-4
13:25:19,7.087539,87.55,35.66,3-4
13:25:19,7.077297,87.55,35.66,3-4
13:25:19,6.926228,87.55,35.66,3-4
13:25:19,6.944845,87.55,35.66,3-4
13:25:20,6.842425,87.48,35.65,3-4
13:25:20,6.932042999999999,87.48,35.65,3-4
13:25:20,6.987092999999999,87.48,35.65,3-4
13:25:20,7.07159,87.48,35.65,3-4
13:25:21,7.120239,87.4,35.66,3-4
13:25:21,7.191934,87.4,35.66,3-4
13:25:21,7.236742,87.4,35.66,3-4
13:25:21,7.263628,87.4,35.66,3-4
13:25:22,7.267467999999999,87.33,35.66,3-4
13:25:22,7.252105,87.33,35.66,3-4
13:25:22,7.217538,87.33,35.66,3-4
13:25:22,7.194494000000001,87.33,35.66,3-4
13:25:23,7.184252000000001,87.28,35.68,3-4
13:25:23,7.174010000000001,87.28,35.68,3-4
13:25:23,7.162488000000001,87.28,35.68,3-4
13:25:23,7.133042,87.28,35.68,3-4
13:25:24,7.144564,87.25,35.66,3-4
13:25:24,7.134322,87.25,35.66,3-4
13:25:24,7.121519999999999,87.25,35.66,3-4
13:25:24,7.094635,87.25,35.66,3-4
13:25:25,7.076711,87.25,35.66,3-4
13:25:25,7.1035960000000005,87.25,35.66,3-4
13:25:25,7.1432839999999995,87.25,35.66,3-4
13:25:25,7.184252000000001,87.25,35.66,3-4
13:25:26,7.2047360000000005,87.25,35.65,3-4
13:25:26,7.198335,87.25,35.65,3-4
13:25:26,7.1381630000000005,87.25,35.65,3-4
13:25:26,7.125360000000001,87.25,35.65,3-4
13:25:27,7.121519999999999,87.27,35.65,3-4
13:25:27,7.107436999999999,87.27,35.65,3-4
13:25:27,7.094635,87.27,35.65,3-4
13:25:27,7.092074,87.27,35.65,3-4
13:25:28,7.099755,87.27,35.65,3-4
13:25:28,7.1087169999999995,87.27,35.65,3-4
13:25:28,7.139442999999999,87.27,35.65,3-4
13:25:28,7.153525999999999,87.27,35.65,3-4
13:25:29,7.148405,87.25,35.65,3-4
13:25:29,7.152246000000001,87.25,35.65,3-4
13:25:29,7.142003999999999,87.25,35.65,3-4
13:25:29,7.134322,87.25,35.65,3-4
13:25:30,7.120239,87.23,35.65,3-4
13:25:30,7.1087169999999995,87.23,35.65,3-4
13:25:30,7.094635,87.23,35.65,3-4
13:25:30,7.085672,87.23,35.65,3-4
13:25:31,7.07159,87.22,35.63,3-4
13:25:31,7.044703999999999,87.22,35.63,3-4
13:25:31,7.013978,87.22,35.63,3-4
13:25:31,6.990933999999999,87.22,35.63,3-4
13:25:32,7.008857000000001,87.2,35.63,3-4
13:25:32,7.017819,87.2,35.63,3-4
13:25:32,7.02422,87.2,35.63,3-4
13:25:32,7.026781,87.2,35.63,3-4
13:25:33,7.028061,87.17,35.63,3-4
13:25:33,7.039584,87.17,35.63,3-4
13:25:33,7.052386,87.17,35.63,3-4
13:25:33,7.057507000000001,87.17,35.63,3-4
13:25:34,7.052386,87.18,35.63,3-4
13:25:34,7.045985000000001,87.18,35.63,3-4
13:25:34,7.039584,87.18,35.63,3-4
13:25:34,7.026781,87.18,35.63,3-4
13:25:35,7.0191,87.25,35.63,3-4
13:25:35,7.010138,87.25,35.63,3-4
13:25:35,6.999896000000001,87.25,35.63,3-4
13:25:35,6.989653999999999,87.25,35.63,3-4
13:25:36,6.985813,87.32,35.63,3-4
13:25:36,6.981972,87.32,35.63,3-4
13:25:36,6.974291,87.32,35.63,3-4
13:25:36,6.960208000000001,87.32,35.63,3-4
13:25:37,6.960208000000001,87.37,35.61,3-4
13:25:37,6.949966000000001,87.37,35.61,3-4
13:25:37,6.9410039999999995,87.37,35.61,3-4
13:25:37,6.9358830000000005,87.37,35.61,3-4
13:25:38,6.928202000000001,87.42,35.61,3-4
13:25:38,6.930762,87.42,35.61,3-4
13:25:38,6.919239999999999,87.42,35.61,3-4
13:25:38,6.912838000000001,87.42,35.61,3-4
13:25:39,6.905157000000001,87.45,35.63,3-4
13:25:39,6.905157000000001,87.45,35.63,3-4
13:25:39,6.893635000000001,87.45,35.63,3-4
13:25:39,6.888514,87.45,35.63,3-4
13:25:40,6.884672999999999,87.43,35.61,3-4
13:25:40,6.885953,87.43,35.61,3-4
13:25:40,6.884672999999999,87.43,35.61,3-4
13:25:40,6.891074000000001,87.43,35.61,3-4
13:25:41,6.888514,87.38,35.61,3-4
13:25:41,6.887233999999999,87.38,35.61,3-4
13:25:41,6.882113,87.38,35.61,3-4
13:25:41,6.875711,87.38,35.61,3-4
13:25:42,6.86803,87.33,35.61,3-4
13:25:42,6.86803,87.33,35.61,3-4
13:25:42,6.857788,87.33,35.61,3-4
13:25:42,6.855227,87.33,35.61,3-4
13:25:43,6.851387,87.28,35.59,3-4
13:25:43,6.848826,87.28,35.59,3-4
13:25:43,6.848826,87.28,35.59,3-4
13:25:43,6.843705,87.28,35.59,3-4
13:25:44,6.836023,87.25,35.59,3-4
13:25:44,6.832183000000001,87.25,35.59,3-4
13:25:44,6.825781,87.25,35.59,3-4
13:25:44,6.819380000000001,87.25,35.59,3-4
13:25:45,6.811699000000001,87.25,35.59,3-4
13:25:45,6.807858,87.25,35.59,3-4
13:25:45,6.802737,87.25,35.59,3-4
13:25:45,6.801456,87.25,35.59,3-4
13:25:46,6.801456,87.28,35.59,3-4
13:25:46,6.811699000000001,87.28,35.59,3-4
13:25:46,6.824501,87.28,35.59,3-4
13:25:46,6.843705,87.28,35.59,3-4
13:25:47,6.857788,87.33,35.59,3-4
13:25:47,6.86803,87.33,35.59,3-4
13:25:47,6.880832000000001,87.33,35.59,3-4
13:25:47,6.898756,87.33,35.59,3-4
13:25:48,6.9089979999999995,87.4,35.61,3-4
13:25:48,6.923080000000001,87.4,35.61,3-4
13:25:48,6.923080000000001,87.4,35.61,3-4
13:25:48,6.917960000000001,87.4,35.61,3-4
13:25:49,6.912838000000001,87.48,35.57,3-4
13:25:49,6.902596000000001,87.48,35.57,3-4
13:25:49,6.885953,87.48,35.57,3-4
13:25:49,6.8718710000000005,87.48,35.57,3-4
13:25:50,6.857788,87.55,35.57,3-4
13:25:50,6.851387,87.55,35.57,3-4
13:25:50,6.853947,87.55,35.57,3-4
13:25:50,6.905157000000001,87.55,35.57,3-4
13:25:51,6.981972,87.62,35.57,3-4
13:25:51,7.056227000000001,87.62,35.57,3-4
13:25:51,7.1112779999999995,87.62,35.57,3-4
13:25:51,7.133042,87.62,35.57,3-4
13:25:52,7.139442999999999,87.68,35.57,3-4
13:25:52,7.130481,87.68,35.57,3-4
13:25:52,7.116399,87.68,35.57,3-4
13:25:52,7.112558,87.68,35.57,3-4
13:25:53,7.107436999999999,87.78,35.57,3-4
13:25:53,7.099755,87.78,35.57,3-4
13:25:53,7.085672,87.78,35.57,3-4
13:25:53,7.069029,87.78,35.57,3-4
13:25:54,7.048545,87.87,35.55,3-4
13:25:54,7.021660000000001,87.87,35.55,3-4
13:25:54,6.9973350000000005,87.87,35.55,3-4
13:25:54,6.978130999999999,87.87,35.55,3-4
13:25:55,6.960208000000001,87.95,35.57,3-4
13:25:55,6.946125,87.95,35.57,3-4
13:25:55,6.937163000000001,87.95,35.57,3-4
13:25:55,6.926921000000001,87.95,35.57,3-4
13:25:56,6.923080000000001,88.03,35.55,3-4
13:25:56,6.930762,88.03,35.55,3-4
13:25:56,6.939724000000001,88.03,35.55,3-4
13:25:56,6.948686,88.03,35.55,3-4
13:25:57,6.943564,88.1,35.55,3-4
13:25:57,6.937163000000001,88.1,35.55,3-4
13:25:57,6.9358830000000005,88.1,35.55,3-4
13:25:57,6.92052,88.1,35.55,3-4
13:25:58,6.9089979999999995,88.15,35.57,3-4
13:25:58,6.9013160000000005,88.15,35.57,3-4
13:25:58,6.893635000000001,88.15,35.57,3-4
13:25:58,6.897475999999999,88.15,35.57,3-4
13:25:59,6.914119,88.2,35.57,3-4
13:25:59,6.932042999999999,88.2,35.57,3-4
13:25:59,6.946125,88.2,35.57,3-4
13:25:59,6.957647,88.2,35.57,3-4
13:26:00,6.987092999999999,88.22,35.57,3-4
13:26:00,7.02422,88.22,35.57,3-4
13:26:00,7.044703999999999,88.22,35.57,3-4
13:26:00,7.056227000000001,88.22,35.57,3-4
13:26:01,7.052386,88.22,35.57,3-4
13:26:01,7.042144,88.22,35.57,3-4
13:26:01,7.026781,88.22,35.57,3-4
13:26:01,7.007577,88.22,35.57,3-4
13:26:02,6.990933999999999,88.25,35.55,3-4
13:26:02,6.975571,88.25,35.55,3-4
13:26:02,6.953807,88.25,35.55,3-4
13:26:02,6.934603,88.25,35.55,3-4
13:26:03,6.924361,88.25,35.55,3-4
13:26:03,6.911558,88.25,35.55,3-4
13:26:03,6.907717999999999,88.25,35.55,3-4
13:26:03,6.889794,88.25,35.55,3-4
13:26:04,6.882113,88.25,35.55,3-4
13:26:04,6.875711,88.25,35.55,3-4
13:26:04,6.8718710000000005,88.25,35.55,3-4
13:26:04,6.884672999999999,88.25,35.55,3-4
13:26:05,6.928202000000001,88.27,35.55,3-4
13:26:05,6.992214,88.27,35.55,3-4
13:26:05,7.0472649999999994,88.27,35.55,3-4
13:26:05,7.080552000000001,88.27,35.55,3-4
13:26:06,7.088233,88.28,35.53,3-4
13:26:06,7.085672,88.28,35.53,3-4
13:26:06,7.069029,88.28,35.53,3-4
13:26:06,7.048545,88.28,35.53,3-4
13:26:07,7.0191,88.3,35.53,3-4
13:26:07,6.992214,88.3,35.53,3-4
13:26:07,6.96917,88.3,35.53,3-4
13:26:07,6.952527000000001,88.3,35.53,3-4
13:26:08,6.932042999999999,88.33,35.53,3-4
13:26:08,6.916678999999999,88.33,35.53,3-4
13:26:08,6.914119,88.33,35.53,3-4
13:26:08,6.9064369999999995,88.33,35.53,3-4
13:26:09,6.9013160000000005,88.37,35.55,3-4
13:26:09,6.898756,88.37,35.55,3-4
13:26:09,6.894914999999999,88.37,35.55,3-4
13:26:09,6.884672999999999,88.37,35.55,3-4
13:26:10,6.875711,88.42,35.55,3-4
13:26:10,6.873150999999999,88.42,35.55,3-4
13:26:10,6.861629,88.42,35.55,3-4
13:26:10,6.853947,88.42,35.55,3-4
13:26:11,6.844985,88.48,35.53,3-4
13:26:11,6.837304,88.48,35.53,3-4
13:26:11,6.830903,88.48,35.53,3-4
13:26:11,6.820661,88.48,35.53,3-4
13:26:12,6.811699000000001,88.62,35.5,3-4
13:26:12,6.804017,88.62,35.5,3-4
13:26:12,6.796336,88.62,35.5,3-4
13:26:12,6.7950550000000005,88.62,35.5,3-4
13:26:13,6.793775,88.73,35.5,3-4
13:26:13,6.809138000000001,88.73,35.5,3-4
13:26:13,6.8181,88.73,35.5,3-4
13:26:13,6.827062,88.73,35.5,3-4
13:26:14,6.819380000000001,88.87,35.5,3-4
13:26:14,6.815539,88.87,35.5,3-4
13:26:14,6.815539,88.87,35.5,3-4
13:26:14,6.806578,88.87,35.5,3-4
13:26:15,6.801456,88.98,35.53,3-4
13:26:15,6.793775,88.98,35.53,3-4
13:26:15,6.780972,88.98,35.53,3-4
13:26:15,6.773291,88.98,35.53,3-4
13:26:16,6.766889999999999,89.07,35.5,3-4
13:26:16,6.764328999999999,89.07,35.5,3-4
13:26:16,6.751527,89.07,35.5,3-4
13:26:16,6.751527,89.07,35.5,3-4
13:26:17,6.743844999999999,89.15,35.5,3-4
13:26:17,6.737444,89.15,35.5,3-4
13:26:17,6.729763,89.15,35.5,3-4
13:26:17,6.7067179999999995,89.15,35.5,3-4
13:26:18,6.705438000000001,89.23,35.5,3-4
13:26:18,6.705438000000001,89.23,35.5,3-4
13:26:18,6.700317,89.23,35.5,3-4
13:26:18,6.692635000000001,89.23,35.5,3-4
13:26:19,6.688795,89.3,35.5,3-4
13:26:19,6.686234,89.3,35.5,3-4
13:26:19,6.682392999999999,89.3,35.5,3-4
13:26:19,6.673431,89.3,35.5,3-4
13:26:20,6.668311,89.25,35.5,3-4
13:26:20,6.661909,89.25,35.5,3-4
13:26:20,6.656788000000001,89.25,35.5,3-4
13:26:20,6.652947,89.25,35.5,3-4
13:26:21,6.646546000000001,89.2,35.49,3-4
13:26:21,6.642705,89.2,35.49,3-4
13:26:21,6.6375839999999995,89.2,35.49,3-4
13:26:21,6.628622999999999,89.2,35.49,3-4
13:26:22,6.624782000000001,89.13,35.49,3-4
13:26:22,6.620941,89.13,35.49,3-4
13:26:22,6.614539999999999,89.13,35.49,3-4
13:26:22,6.606858,89.13,35.49,3-4
13:26:23,6.596616,89.07,35.49,3-4
13:26:23,6.596616,89.07,35.49,3-4
13:26:23,6.595336,89.07,35.49,3-4
13:26:23,6.591496,89.07,35.49,3-4
13:26:24,6.591496,89.0,35.5,3-4
13:26:24,6.587655000000001,89.0,35.5,3-4
13:26:24,6.583814,89.0,35.5,3-4
13:26:24,6.5812539999999995,89.0,35.5,3-4
13:26:25,6.577413000000001,88.9,35.5,3-4
13:26:25,6.571012,88.9,35.5,3-4
13:26:25,6.56589,88.9,35.5,3-4
13:26:25,6.558209,88.9,35.5,3-4
13:26:26,6.550527,88.82,35.47,3-4
13:26:26,6.544126,88.82,35.47,3-4
13:26:26,6.542846,88.82,35.47,3-4
13:26:26,6.539005,88.82,35.47,3-4
13:26:27,6.535164,88.73,35.49,3-4
13:26:27,6.531323,88.73,35.49,3-4
13:26:27,6.532604,88.73,35.49,3-4
13:26:27,6.533884,88.73,35.49,3-4
13:26:28,6.546687,88.7,35.47,3-4
13:26:28,6.571012,88.7,35.47,3-4
13:26:28,6.590215,88.7,35.47,3-4
13:26:28,6.606858,88.7,35.47,3-4
13:26:29,6.610699,88.73,35.49,3-4
13:26:29,6.604298,88.73,35.49,3-4
13:26:29,6.591496,88.73,35.49,3-4
13:26:29,6.583814,88.73,35.49,3-4
13:26:30,6.568451,88.8,35.49,3-4
13:26:30,6.554367999999999,88.8,35.49,3-4
13:26:30,6.547967,88.8,35.49,3-4
13:26:30,6.544126,88.8,35.49,3-4
13:26:31,6.454508000000001,88.88,35.5,3-4
13:26:31,6.346967,88.88,35.5,3-4
13:26:31,6.303939,88.88,35.5,3-4
13:26:31,6.223283,88.88,35.5,3-4
13:26:32,6.26041,89.02,35.49,3-4
13:26:32,6.222003,89.02,35.49,3-4
13:26:32,6.305219,89.02,35.49,3-4
13:26:32,6.470371,89.02,35.49,3-4
13:26:33,6.704658,89.2,35.47,3-4
13:26:33,6.787874,89.2,35.47,3-4
13:26:33,6.890294,89.2,35.47,3-4
13:26:33,6.9581479999999996,89.2,35.47,3-4
13:26:34,7.007577,89.3,35.47,3-4
13:26:34,7.008857000000001,89.3,35.47,3-4
13:26:34,6.973011,89.3,35.47,3-4
13:26:34,6.933322,89.3,35.47,3-4
13:26:35,6.889794,89.35,35.47,3-4
13:26:35,6.843705,89.35,35.47,3-4
13:26:35,6.796336,89.35,35.47,3-4
13:26:35,6.779692,89.35,35.47,3-4
13:26:36,6.820661,89.4,35.47,3-4
13:26:36,6.911558,89.4,35.47,3-4
13:26:36,6.996055,89.4,35.47,3-4
13:26:36,7.056227000000001,89.4,35.47,3-4
13:26:37,7.085672,89.8,35.47,3-4
13:26:37,7.097195,89.8,35.47,3-4
13:26:37,7.092074,89.8,35.47,3-4
13:26:37,7.069029,89.8,35.47,3-4
13:26:38,7.033182000000001,90.25,35.47,3-4
13:26:38,6.989653999999999,90.25,35.47,3-4
13:26:38,6.949966000000001,90.25,35.47,3-4
13:26:38,6.911558,90.25,35.47,3-4
13:26:39,6.873150999999999,90.75,35.49,3-4
13:26:39,6.837304,90.75,35.49,3-4
13:26:39,6.807858,90.75,35.49,3-4
13:26:39,6.779692,90.75,35.49,3-4
13:26:40,6.759208,91.28,35.47,3-4
13:26:40,6.737444,91.28,35.47,3-4
13:26:40,6.71312,91.28,35.47,3-4
13:26:40,6.700317,91.28,35.47,3-4
13:26:41,6.684953999999999,91.85,35.47,3-4
13:26:41,6.6695910000000005,91.85,35.47,3-4
13:26:41,6.650386999999999,91.85,35.47,3-4
13:26:41,6.641425,91.85,35.47,3-4
13:26:42,6.632463,92.47,35.47,3-4
13:26:42,6.620941,92.47,35.47,3-4
13:26:42,6.609419,92.47,35.47,3-4
13:26:42,6.599177,92.47,35.47,3-4
13:26:43,6.579973,93.13,35.45,3-4
13:26:43,6.562049000000001,93.13,35.45,3-4
13:26:43,6.555648,93.13,35.45,3-4
13:26:43,6.539005,93.13,35.45,3-4
13:26:44,6.541565,94.0,35.45,3-4
13:26:44,6.551807,94.0,35.45,3-4
13:26:44,6.556928999999999,94.0,35.45,3-4
13:26:44,6.5633300000000006,94.0,35.45,3-4
13:26:45,6.572291000000001,94.85,35.43,3-4
13:26:45,6.588935,94.85,35.43,3-4
13:26:45,6.6004570000000005,94.85,35.43,3-4
13:26:45,6.615819999999999,94.85,35.43,3-4
13:26:46,6.628622999999999,95.7,35.47,3-4
13:26:46,6.6350240000000005,95.7,35.47,3-4
13:26:46,6.6350240000000005,95.7,35.47,3-4
13:26:46,6.626061999999999,95.7,35.47,3-4
13:26:47,6.614539999999999,96.53,35.43,3-4
13:26:47,6.603018,96.53,35.43,3-4
13:26:47,6.590215,96.53,35.43,3-4
13:26:47,6.5786929999999995,96.53,35.43,3-4
13:26:48,6.56589,97.3,35.43,3-4
13:26:48,6.558209,97.3,35.43,3-4
13:26:48,6.545406,97.3,35.43,3-4
13:26:48,6.533884,97.3,35.43,3-4
13:26:49,6.524922,98.07,35.43,3-4
13:26:49,6.5134,98.07,35.43,3-4
13:26:49,6.500597,98.07,35.43,3-4
13:26:49,6.499317,98.07,35.43,3-4
13:26:50,6.487794999999999,98.83,35.43,3-4
13:26:50,6.487794999999999,98.83,35.43,3-4
13:26:50,6.474991999999999,98.83,35.43,3-4
13:26:50,6.471152,98.83,35.43,3-4
13:26:51,6.46347,99.57,35.41,3-4
13:26:51,6.46091,99.57,35.41,3-4
13:26:51,6.448107,99.57,35.41,3-4
13:26:51,6.436585,99.57,35.41,3-4
13:26:52,6.4327440000000005,100.3,35.41,3-4
13:26:52,6.433244,100.3,35.41,3-4
13:26:52,6.428123,100.3,35.41,3-4
13:26:52,6.421722,100.3,35.41,3-4
13:26:53,6.419161,101.02,35.41,3-4
13:26:53,6.4102,101.02,35.41,3-4
13:26:53,6.405078,101.02,35.41,3-4
13:26:53,6.397397,101.02,35.41,3-4
13:26:54,6.394836,101.73,35.41,3-4
13:26:54,6.397397,101.73,35.41,3-4
13:26:54,6.403798,101.73,35.41,3-4
13:26:54,6.416601,101.73,35.41,3-4
13:26:55,6.419161,102.47,35.39,3-4
13:26:55,6.419161,102.47,35.39,3-4
13:26:55,6.416601,102.47,35.39,3-4
13:26:55,6.41148,102.47,35.39,3-4
13:26:56,6.403798,103.12,35.41,3-4
13:26:56,6.394836,103.12,35.41,3-4
13:26:56,6.389716,103.12,35.41,3-4
13:26:56,6.387155,103.12,35.41,3-4
13:26:57,6.392276,103.7,35.41,3-4
13:26:57,6.396116999999999,103.7,35.41,3-4
13:26:57,6.398676999999999,103.7,35.41,3-4
13:26:57,6.407639,103.7,35.41,3-4
13:26:58,6.408919,104.45,35.41,3-4
13:26:58,6.407639,104.45,35.41,3-4
13:26:58,6.403798,104.45,35.41,3-4
13:26:58,6.396116999999999,104.45,35.41,3-4
13:26:59,6.392276,105.27,35.41,3-4
13:26:59,6.383314,105.27,35.41,3-4
13:26:59,6.374352,105.27,35.41,3-4
13:26:59,6.370512000000001,105.27,35.41,3-4
13:27:00,6.367951000000001,106.1,35.41,3-4
13:27:00,6.384594,106.1,35.41,3-4
13:27:00,6.398676999999999,106.1,35.41,3-4
13:27:00,6.2847349999999995,106.1,35.41,3-4
13:27:01,6.070933,106.8,35.41,3-4
13:27:01,5.901939,106.8,35.41,3-4
13:27:01,5.923001999999999,106.8,35.41,3-4
13:27:01,5.960129,106.8,35.41,3-4
13:27:02,5.884594,107.47,35.39,3-4
13:27:02,6.2136190000000004,107.47,35.39,3-4
13:27:02,6.464548000000001,107.47,35.39,3-4
13:27:02,6.743065,107.47,35.39,3-4
13:27:03,6.959428,107.97,35.39,3-4
13:27:03,7.107436999999999,107.97,35.39,3-4
13:27:03,7.165048,107.97,35.39,3-4
13:27:03,7.186812,107.97,35.39,3-4
13:27:04,7.235461999999999,108.4,35.39,3-4
13:27:04,7.250825,108.4,35.39,3-4
13:27:04,7.186812,108.4,35.39,3-4
13:27:04,6.796336,108.4,35.39,3-4
13:27:05,6.714399,108.6,35.39,3-4
13:27:05,6.501878,108.6,35.39,3-4
13:27:05,6.370012,108.6,35.39,3-4
13:27:05,6.093977,108.6,35.39,3-4
13:27:06,6.134945,108.83,35.39,3-4
13:27:06,6.242486,108.83,35.39,3-4
13:27:06,6.198958,108.83,35.39,3-4
13:27:06,6.166951999999999,108.83,35.39,3-4
13:27:07,6.059411,108.95,35.39,3-4
13:27:07,6.021003,108.95,35.39,3-4
13:27:07,5.980035,108.95,35.39,3-4
13:27:07,5.835367,108.95,35.39,3-4
13:27:08,5.871791,109.03,35.37,3-4
13:27:08,5.935804,109.03,35.37,3-4
13:27:08,5.905078,109.03,35.37,3-4
13:27:08,5.853868,109.03,35.37,3-4
13:27:09,5.862830000000001,109.15,35.37,3-4
13:27:09,5.848747,109.15,35.37,3-4
13:27:09,5.820581,109.15,35.37,3-4
13:27:09,5.792416,109.15,35.37,3-4
13:27:10,5.848747,109.27,35.39,3-4
13:27:10,5.848747,109.27,35.39,3-4
13:27:10,5.847467,109.27,35.39,3-4
13:27:10,5.728404,109.27,35.39,3-4
13:27:11,5.672072,109.43,35.37,3-4
13:27:11,5.798817,109.43,35.37,3-4
13:27:11,5.775773,109.43,35.37,3-4
13:27:11,5.794976,109.43,35.37,3-4
13:27:12,5.855148000000001,109.55,35.34,3-4
13:27:12,5.933244,109.55,35.34,3-4
13:27:12,6.211058,109.55,35.34,3-4
13:27:12,6.502956,109.55,35.34,3-4
13:27:13,6.9530259999999995,109.72,35.34,3-4
13:27:13,7.217538,109.72,35.34,3-4
13:27:13,7.272589,109.72,35.34,3-4
13:27:13,7.353244999999999,109.72,35.34,3-4
13:27:14,7.335322,109.93,35.33,3-4
13:27:14,7.340443,109.93,35.33,3-4
13:27:14,7.302035000000001,109.93,35.33,3-4
13:27:14,7.253386,109.93,35.33,3-4
13:27:15,7.166328,110.35,35.34,3-4
13:27:15,7.097195,110.35,35.34,3-4
13:27:15,7.052386,110.35,35.34,3-4
13:27:15,7.02038,110.35,35.34,3-4
13:27:16,6.9832529999999995,110.78,35.34,3-4
13:27:16,6.944845,110.78,35.34,3-4
13:27:16,6.924361,110.78,35.34,3-4
13:27:16,6.896195,110.78,35.34,3-4
13:27:17,6.873150999999999,111.22,35.33,3-4
13:27:17,6.843705,111.22,35.33,3-4
13:27:17,6.806578,111.22,35.33,3-4
13:27:17,6.777132000000001,111.22,35.33,3-4
13:27:18,6.756647999999999,111.65,35.33,3-4
13:27:18,6.752807000000001,111.65,35.33,3-4
13:27:18,6.747686,111.65,35.33,3-4
13:27:18,6.748966,111.65,35.33,3-4
13:27:19,6.742564999999999,112.08,35.31,3-4
13:27:19,6.740005,112.08,35.31,3-4
13:27:19,6.724642,112.08,35.31,3-4
13:27:19,6.710559,112.08,35.31,3-4
13:27:20,6.691355000000001,112.6,35.31,3-4
13:27:20,6.673431,112.6,35.31,3-4
13:27:20,6.658069,112.6,35.31,3-4
13:27:20,6.650386999999999,112.6,35.31,3-4
13:27:21,6.643986,113.1,35.29,3-4
13:27:21,6.650386999999999,113.1,35.29,3-4
13:27:21,6.655508,113.1,35.29,3-4
13:27:21,6.654228,113.1,35.29,3-4
13:27:22,6.649107000000001,113.57,35.31,3-4
13:27:22,6.643986,113.57,35.31,3-4
13:27:22,6.631183,113.57,35.31,3-4
13:27:22,6.618380999999999,113.57,35.31,3-4
13:27:23,6.604298,114.03,35.29,3-4
13:27:23,6.585094000000001,114.03,35.29,3-4
13:27:23,6.572291000000001,114.03,35.29,3-4
13:27:23,6.551807,114.03,35.29,3-4
13:27:24,6.536445,114.37,35.29,3-4
13:27:24,6.526203,114.37,35.29,3-4
13:27:24,6.510839,114.37,35.29,3-4
13:27:24,6.494196,114.37,35.29,3-4
13:27:25,6.474991999999999,114.65,35.29,3-4
13:27:25,6.46475,114.65,35.29,3-4
13:27:25,6.457069000000001,114.65,35.29,3-4
13:27:25,6.444266000000001,114.65,35.29,3-4
13:27:26,6.440426,114.82,35.27,3-4
13:27:26,6.4327440000000005,114.82,35.27,3-4
13:27:26,6.4204419999999995,114.82,35.27,3-4
13:27:26,6.4102,114.82,35.27,3-4
13:27:27,6.398676999999999,114.97,35.27,3-4
13:27:27,6.385875,114.97,35.27,3-4
13:27:27,6.3756330000000005,114.97,35.27,3-4
13:27:27,6.362830000000001,114.97,35.27,3-4
13:27:28,6.347467,115.07,35.27,3-4
13:27:28,6.337225,115.07,35.27,3-4
13:27:28,6.323143,115.07,35.27,3-4
13:27:28,6.318021,115.07,35.27,3-4
13:27:29,6.303939,115.08,35.25,3-4
13:27:29,6.294976999999999,115.08,35.25,3-4
13:27:29,6.279614,115.08,35.25,3-4
13:27:29,6.26297,115.08,35.25,3-4
13:27:30,6.224563,115.07,35.23,3-4
13:27:30,6.205359,115.07,35.23,3-4
13:27:30,6.184875,115.07,35.23,3-4
13:27:30,6.218162,115.07,35.23,3-4
13:27:31,6.25913,115.02,35.25,3-4
13:27:31,6.201519,115.02,35.25,3-4
13:27:31,6.223283,115.02,35.25,3-4
13:27:31,6.301378,115.02,35.25,3-4
13:27:32,6.343626,114.9,35.23,3-4
13:27:32,6.399958,114.9,35.23,3-4
13:27:32,6.510059,114.9,35.23,3-4
13:27:32,6.530543,114.9,35.23,3-4
13:27:33,6.620161,114.72,35.25,3-4
13:27:33,6.734103,114.72,35.25,3-4
13:27:33,6.803236999999999,114.72,35.25,3-4
13:27:33,6.840364,114.72,35.25,3-4
13:27:34,6.836524000000001,114.57,35.25,3-4
13:27:34,6.813478999999999,114.57,35.25,3-4
13:27:34,6.808358,114.57,35.25,3-4
13:27:34,6.7507470000000005,114.57,35.25,3-4
13:27:35,6.590714999999999,114.4,35.23,3-4
13:27:35,6.66753,114.4,35.23,3-4
13:27:35,6.757148,114.4,35.23,3-4
13:27:35,6.766108999999999,114.4,35.23,3-4
13:27:36,6.76739,114.22,35.23,3-4
13:27:36,6.476773000000001,114.22,35.23,3-4
13:27:36,6.493416000000001,114.22,35.23,3-4
13:27:36,6.645766,114.22,35.23,3-4
13:27:37,6.739224,113.67,35.21,3-4
13:27:37,6.808358,113.67,35.21,3-4
13:27:37,6.839084,113.67,35.21,3-4
13:27:37,6.855727000000001,113.67,35.21,3-4
13:27:38,6.859567999999999,113.05,35.25,3-4
13:27:38,6.857008,113.05,35.25,3-4
13:27:38,6.833963000000001,113.05,35.25,3-4
13:27:38,6.814759,113.05,35.25,3-4
13:27:39,6.7929949999999995,112.37,35.25,3-4
13:27:39,6.776350999999999,112.37,35.25,3-4
13:27:39,6.752027,112.37,35.25,3-4
13:27:39,6.736664,112.37,35.25,3-4
13:27:40,6.720021000000001,111.7,35.25,3-4
13:27:40,6.703377000000001,111.7,35.25,3-4
13:27:40,6.696975999999999,111.7,35.25,3-4
13:27:40,6.725142,111.7,35.25,3-4
13:27:41,6.789153999999999,111.03,35.23,3-4
13:27:41,6.868530000000001,111.03,35.23,3-4
13:27:41,6.919739999999999,111.03,35.23,3-4
13:27:41,6.942784,111.03,35.23,3-4
13:27:42,6.9678889999999996,110.23,35.23,3-4
13:27:42,6.956367,110.23,35.23,3-4
13:27:42,6.917960000000001,110.23,35.23,3-4
13:27:42,6.860347999999999,110.23,35.23,3-4
13:27:43,6.824501,109.22,35.25,3-4
13:27:43,6.800177000000001,109.22,35.25,3-4
13:27:43,6.792495,109.22,35.25,3-4
13:27:43,6.76945,109.22,35.25,3-4
13:27:44,6.747686,107.95,35.25,3-4
13:27:44,6.7284820000000005,107.95,35.25,3-4
13:27:44,6.711839,107.95,35.25,3-4
13:27:44,6.7015970000000005,107.95,35.25,3-4
13:27:45,6.684953999999999,106.65,35.23,3-4
13:27:45,6.6695910000000005,106.65,35.23,3-4
13:27:45,6.654228,106.65,35.23,3-4
13:27:45,6.641425,106.65,35.23,3-4
13:27:46,6.624782000000001,105.33,35.23,3-4
13:27:46,6.611978999999999,105.33,35.23,3-4
13:27:46,6.599177,105.33,35.23,3-4
13:27:46,6.586374,105.33,35.23,3-4
13:27:47,6.5812539999999995,104.02,35.27,3-4
13:27:47,6.594056,104.02,35.27,3-4
13:27:47,6.643986,104.02,35.27,3-4
13:27:47,6.710559,104.02,35.27,3-4
13:27:48,6.76945,102.82,35.25,3-4
13:27:48,6.800177000000001,102.82,35.25,3-4
13:27:48,6.775852,102.82,35.25,3-4
13:27:48,6.723361,102.82,35.25,3-4
13:27:49,6.66575,101.83,35.27,3-4
13:27:49,6.642705,101.83,35.27,3-4
13:27:49,6.618380999999999,101.83,35.27,3-4
13:27:49,6.590215,101.83,35.27,3-4
13:27:50,6.576132,100.93,35.23,3-4
13:27:50,6.599177,100.93,35.23,3-4
13:27:50,6.684953999999999,100.93,35.23,3-4
13:27:50,6.805297,100.93,35.23,3-4
13:27:51,6.897475999999999,100.07,35.25,3-4
13:27:51,6.9410039999999995,100.07,35.25,3-4
13:27:51,6.953807,100.07,35.25,3-4
13:27:51,6.943564,100.07,35.25,3-4
13:27:52,6.9064369999999995,99.2,35.25,3-4
13:27:52,6.864189,99.2,35.25,3-4
13:27:52,6.809138000000001,99.2,35.25,3-4
13:27:52,6.760489,99.2,35.25,3-4
13:27:53,6.722081,98.35,35.25,3-4
13:27:53,6.692635000000001,98.35,35.25,3-4
13:27:53,6.677272,98.35,35.25,3-4
13:27:53,6.6695910000000005,98.35,35.25,3-4
13:27:54,6.658069,97.55,35.23,3-4
13:27:54,6.6401449999999995,97.55,35.23,3-4
13:27:54,6.623502,97.55,35.23,3-4
13:27:54,6.6081389999999995,97.55,35.23,3-4
13:27:55,6.586374,96.77,35.23,3-4
13:27:55,6.564610000000001,96.77,35.23,3-4
13:27:55,6.540285,96.77,35.23,3-4
13:27:55,6.521081,96.77,35.23,3-4
13:27:56,6.496757,96.07,35.23,3-4
13:27:56,6.481394,96.07,35.23,3-4
13:27:56,6.459630000000001,96.07,35.23,3-4
13:27:56,6.442986,96.07,35.23,3-4
13:27:57,6.422502,95.47,35.25,3-4
13:27:57,6.41148,95.47,35.25,3-4
13:27:57,6.394836,95.47,35.25,3-4
13:27:57,6.3807540000000005,95.47,35.25,3-4
13:27:58,6.366671,94.73,35.25,3-4
13:27:58,6.356429,94.73,35.25,3-4
13:27:58,6.333385,94.73,35.25,3-4
13:27:58,6.314181,94.73,35.25,3-4
13:27:59,6.300098,93.93,35.25,3-4
13:27:59,6.291136,93.93,35.25,3-4
13:27:59,6.283455,93.93,35.25,3-4
13:27:59,6.271933,93.93,35.25,3-4
13:28:00,6.294976999999999,93.12,35.25,3-4
13:28:00,6.344907,93.12,35.25,3-4
13:28:00,6.41148,93.12,35.25,3-4
13:28:00,6.4550089999999996,93.12,35.25,3-4
13:28:01,6.475492,92.43,35.25,3-4
13:28:01,6.4793330000000005,92.43,35.25,3-4
13:28:01,6.467811,92.43,35.25,3-4
13:28:01,6.446047,92.43,35.25,3-4
13:28:02,6.4178809999999995,91.73,35.25,3-4
13:28:02,6.389716,91.73,35.25,3-4
13:28:02,6.355149,91.73,35.25,3-4
13:28:02,6.324423,91.73,35.25,3-4
13:28:03,6.297537,91.25,35.27,3-4
13:28:03,6.273212,91.25,35.27,3-4
13:28:03,6.264251,91.25,35.27,3-4
13:28:03,6.238646,91.25,35.27,3-4
13:28:04,6.225843,90.78,35.25,3-4
13:28:04,6.2130410000000005,90.78,35.25,3-4
13:28:04,6.202799,90.78,35.25,3-4
13:28:04,6.1912769999999995,90.78,35.25,3-4
13:28:05,6.187436,90.57,35.27,3-4
13:28:05,6.1912769999999995,90.57,35.27,3-4
13:28:05,6.211761,90.57,35.27,3-4
13:28:05,6.233525,90.57,35.27,3-4
13:28:06,6.26297,90.3,35.27,3-4
13:28:06,6.274493,90.3,35.27,3-4
13:28:06,6.269372,90.3,35.27,3-4
13:28:06,6.25913,90.3,35.27,3-4
13:28:07,6.237366000000001,90.17,35.25,3-4
13:28:07,6.218162,90.17,35.25,3-4
13:28:07,6.189996,90.17,35.25,3-4
13:28:07,6.169512,90.17,35.25,3-4
13:28:08,6.152869,90.08,35.25,3-4
13:28:08,6.143907,90.08,35.25,3-4
13:28:08,6.132385,90.08,35.25,3-4
13:28:08,6.120862000000001,90.08,35.25,3-4
13:28:09,6.11062,89.98,35.25,3-4
13:28:09,6.095258,89.98,35.25,3-4
13:28:09,6.087576,89.98,35.25,3-4
13:28:09,6.070933,89.98,35.25,3-4
13:28:10,6.060691,89.88,35.25,3-4
13:28:10,6.051729,89.88,35.25,3-4
13:28:10,6.0478879999999995,89.88,35.25,3-4
13:28:10,6.029965,89.88,35.25,3-4
13:28:11,6.023562999999999,89.72,35.25,3-4
13:28:11,6.0555699999999995,89.72,35.25,3-4
13:28:11,6.159269999999999,89.72,35.25,3-4
13:28:11,6.305219,89.72,35.25,3-4
13:28:12,6.439645,89.58,35.27,3-4
13:28:12,6.542066,89.58,35.27,3-4
13:28:12,6.588155,89.58,35.27,3-4
13:28:12,6.611199000000001,89.58,35.27,3-4
13:28:13,6.61504,89.4,35.27,3-4
13:28:13,6.6073580000000005,89.4,35.27,3-4
13:28:13,6.583034,89.4,35.27,3-4
13:28:13,6.56767,89.4,35.27,3-4
13:28:14,6.5535879999999995,89.15,35.27,3-4
13:28:14,6.545906,89.15,35.27,3-4
13:28:14,6.526701999999999,89.15,35.27,3-4
13:28:14,6.502378,89.15,35.27,3-4
13:28:15,6.4742120000000005,88.72,35.29,3-4
13:28:15,6.448607,88.72,35.29,3-4
13:28:15,6.421722,88.72,35.29,3-4
13:28:15,6.393555999999999,88.72,35.29,3-4
13:28:16,6.365391000000001,88.28,35.27,3-4
13:28:16,6.335945,88.28,35.27,3-4
13:28:16,6.314181,88.28,35.27,3-4
13:28:16,6.2924169999999995,88.28,35.27,3-4
13:28:17,6.271933,87.85,35.25,3-4
13:28:17,6.252728,87.85,35.25,3-4
13:28:17,6.229684,87.85,35.25,3-4
13:28:17,6.222003,87.85,35.25,3-4
13:28:18,6.20664,87.42,35.25,3-4
13:28:18,6.193837,87.42,35.25,3-4
13:28:18,6.170793,87.42,35.25,3-4
13:28:18,6.163111,87.42,35.25,3-4
13:28:19,6.169512,86.98,35.27,3-4
13:28:19,6.275773,86.98,35.27,3-4
13:28:19,6.453728,86.98,35.27,3-4
13:28:19,6.664969999999999,86.98,35.27,3-4
13:28:20,6.831402000000001,86.55,35.25,3-4
13:28:20,6.917178999999999,86.55,35.25,3-4
13:28:20,6.929982000000001,86.55,35.25,3-4
13:28:20,6.952527000000001,86.55,35.25,3-4
13:28:21,6.919239999999999,86.15,35.27,3-4
13:28:21,6.852666999999999,86.15,35.27,3-4
13:28:21,6.778411999999999,86.15,35.27,3-4
13:28:21,6.702878,86.15,35.27,3-4
13:28:22,6.6350240000000005,85.8,35.27,3-4
13:28:22,6.577413000000001,85.8,35.27,3-4
13:28:22,6.539005,85.8,35.27,3-4
13:28:22,6.5069989999999995,85.8,35.27,3-4
13:28:23,6.472432,85.45,35.27,3-4
13:28:23,6.449388,85.45,35.27,3-4
13:28:23,6.434024,85.45,35.27,3-4
13:28:23,6.4102,85.45,35.27,3-4
13:28:24,6.383314,85.18,35.27,3-4
13:28:24,6.3756330000000005,85.18,35.27,3-4
13:28:24,6.403798,85.18,35.27,3-4
13:28:24,6.457569,85.18,35.27,3-4
13:28:25,6.511340000000001,84.98,35.25,3-4
13:28:25,6.548467,84.98,35.25,3-4
13:28:25,6.5587089999999995,84.98,35.25,3-4
13:28:25,6.5535879999999995,84.98,35.25,3-4
13:28:26,6.539505,84.92,35.27,3-4
13:28:26,6.511340000000001,84.92,35.27,3-4
13:28:26,6.475492,84.92,35.27,3-4
13:28:26,6.443486,84.92,35.27,3-4
13:28:27,6.41148,84.87,35.27,3-4
13:28:27,6.385875,84.87,35.27,3-4
13:28:27,6.366671,84.87,35.27,3-4
13:28:27,6.350028,84.87,35.27,3-4
13:28:28,6.335945,84.85,35.25,3-4
13:28:28,6.323143,84.85,35.25,3-4
13:28:28,6.306499,84.85,35.25,3-4
13:28:28,6.293697,84.85,35.25,3-4
13:28:29,6.280894,84.88,35.25,3-4
13:28:29,6.2847349999999995,84.88,35.25,3-4
13:28:29,6.296257,84.88,35.25,3-4
13:28:29,6.31162,84.88,35.25,3-4
13:28:30,6.3193019999999995,84.93,35.25,3-4
13:28:30,6.320582,84.93,35.25,3-4
13:28:30,6.318021,84.93,35.25,3-4
13:28:30,6.31162,84.93,35.25,3-4
13:28:31,6.330824,85.0,35.25,3-4
13:28:31,6.374352,85.0,35.25,3-4
13:28:31,6.414041,85.0,35.25,3-4
13:28:31,6.437085,85.0,35.25,3-4
13:28:32,6.437085,85.08,35.25,3-4
13:28:32,6.4255629999999995,85.08,35.25,3-4
13:28:32,6.407639,85.08,35.25,3-4
13:28:32,6.385875,85.08,35.25,3-4
13:28:33,6.357709,85.18,35.25,3-4
13:28:33,6.330824,85.18,35.25,3-4
13:28:33,6.303939,85.18,35.25,3-4
13:28:33,6.288576,85.18,35.25,3-4
13:28:34,6.2476080000000005,85.28,35.29,3-4
13:28:34,6.181035,85.28,35.29,3-4
13:28:34,6.001799,85.28,35.29,3-4
13:28:34,5.994118,85.28,35.29,3-4
13:28:35,5.983876,85.4,35.27,3-4
13:28:35,5.909621,85.4,35.27,3-4
13:28:35,5.7296830000000005,85.4,35.27,3-4
13:28:35,5.50692,85.4,35.27,3-4
13:28:36,5.636225,85.52,35.25,3-4
