TIME,EDA,HR,TEMP
23:46:30,3.249018,55.0,34.97
23:46:30,3.243897,55.0,34.97
23:46:30,3.243897,55.0,34.97
23:46:30,3.2387759999999997,55.0,34.97
23:46:31,3.2413369999999997,70.0,34.97
23:46:31,3.2413369999999997,70.0,34.97
23:46:31,3.2528599999999996,70.0,34.97
23:46:31,3.243897,70.0,34.97
23:46:32,3.2374959999999997,76.33,34.97
23:46:32,3.2387759999999997,76.33,34.97
23:46:32,3.2310939999999997,76.33,34.97
23:46:32,3.2234119999999997,76.33,34.97
23:46:33,3.2234119999999997,72.5,34.97
23:46:33,3.2208509999999997,72.5,34.97
23:46:33,3.192684,72.5,34.97
23:46:33,3.190123,72.5,34.97
23:46:34,3.190123,70.0,34.97
23:46:34,3.192684,70.0,34.97
23:46:34,3.191404,70.0,34.97
23:46:34,3.187563,70.0,34.97
23:46:35,3.183722,74.67,34.97
23:46:35,3.186282,74.67,34.97
23:46:35,3.182441,74.67,34.97
23:46:35,3.182441,74.67,34.97
23:46:36,3.197805,78.0,34.95
23:46:36,3.21445,78.0,34.95
23:46:36,3.208048,78.0,34.95
23:46:36,3.210609,78.0,34.95
23:46:37,3.202927,80.25,34.95
23:46:37,3.2093279999999997,80.25,34.95
23:46:37,3.2208509999999997,80.25,34.95
23:46:37,3.236215,80.25,34.95
23:46:38,3.251579,81.89,34.97
23:46:38,3.261822,81.89,34.97
23:46:38,3.264382,81.89,34.97
23:46:38,3.266943,81.89,34.97
23:46:39,3.268224,83.2,34.97
23:46:39,3.275905,83.2,34.97
23:46:39,3.284868,83.2,34.97
23:46:39,3.270784,83.2,34.97
23:46:40,3.266943,84.27,34.97
23:46:40,3.2835870000000003,84.27,34.97
23:46:40,3.339922,84.27,34.97
23:46:40,3.407779,84.27,34.97
23:46:41,3.466674,85.25,34.97
23:46:41,3.551646,85.25,34.97
23:46:41,3.5746919999999998,85.25,34.97
23:46:41,3.577253,85.25,34.97
23:46:42,3.5580480000000003,86.23,34.97
23:46:42,3.5286,86.23,34.97
23:46:42,3.4991529999999997,86.23,34.97
23:46:42,3.470986,86.23,34.97
23:46:43,3.44794,87.21,34.97
23:46:43,3.427454,87.21,34.97
23:46:43,3.4108099999999997,87.21,34.97
23:46:43,3.3928849999999997,87.21,34.97
23:46:44,3.3877639999999998,88.27,34.97
23:46:44,3.381363,88.27,34.97
23:46:44,3.3724,88.27,34.97
23:46:44,3.367279,88.27,34.97
23:46:45,3.362158,89.31,34.97
23:46:45,3.362158,89.31,34.97
23:46:45,3.358317,89.31,34.97
23:46:45,3.348074,89.31,34.97
23:46:46,3.345513,90.29,34.97
23:46:46,3.344233,90.29,34.97
23:46:46,3.341672,90.29,34.97
23:46:46,3.3301489999999996,90.29,34.97
23:46:47,3.322468,91.22,34.97
23:46:47,3.323748,91.22,34.97
23:46:47,3.335271,91.22,34.97
23:46:47,3.345513,91.22,34.97
23:46:48,3.340392,92.05,34.97
23:46:48,3.33399,92.05,34.97
23:46:48,3.328869,92.05,34.97
23:46:48,3.321187,92.05,34.97
23:46:49,3.321187,92.8,34.97
23:46:49,3.313505,92.8,34.97
23:46:49,3.309664,92.8,34.97
23:46:49,3.3019819999999998,92.8,34.97
23:46:50,3.303262,93.48,34.97
23:46:50,3.2994220000000003,93.48,34.97
23:46:50,3.2968610000000003,93.48,34.97
23:46:50,3.2943,93.48,34.97
23:46:51,3.29302,94.14,34.95
23:46:51,3.290459,94.14,34.95
23:46:51,3.285338,94.14,34.95
23:46:51,3.285338,94.14,34.95
23:46:52,3.278936,94.7,34.95
23:46:52,3.277656,94.7,34.95
23:46:52,3.276376,94.7,34.95
23:46:52,3.275095,94.7,34.95
23:46:53,3.276376,95.21,34.97
23:46:53,3.2738150000000004,95.21,34.97
23:46:53,3.272535,95.21,34.97
23:46:53,3.277656,95.21,34.97
23:46:54,3.275095,95.64,34.99
23:46:54,3.271254,95.64,34.99
23:46:54,3.267413,95.64,34.99
23:46:54,3.262292,95.64,34.99
23:46:55,3.263572,96.04,34.99
23:46:55,3.257171,96.04,34.99
23:46:55,3.257171,96.04,34.99
23:46:55,3.25333,96.04,34.99
23:46:56,3.257171,96.41,34.97
23:46:56,3.263572,96.41,34.97
23:46:56,3.223882,96.41,34.97
23:46:56,3.222602,96.41,34.97
23:46:57,3.231564,96.75,34.97
23:46:57,3.220041,96.75,34.97
23:46:57,3.2162,96.75,34.97
23:46:57,3.213639,96.75,34.97
23:46:58,3.208518,97.07,34.97
23:46:58,3.202116,97.07,34.97
23:46:58,3.2008360000000002,97.07,34.97
23:46:58,3.1957150000000003,97.07,34.97
23:46:59,3.1880330000000003,97.33,34.99
23:46:59,3.194435,97.33,34.99
23:46:59,3.204677,97.33,34.99
23:46:59,3.21492,97.33,34.99
23:47:00,3.2162,97.58,34.99
23:47:00,3.2162,97.58,34.99
23:47:00,3.218761,97.58,34.99
23:47:00,3.208518,97.58,34.99
23:47:01,3.202116,97.78,34.99
23:47:01,3.208518,97.78,34.99
23:47:01,3.2033970000000003,97.78,34.99
23:47:01,3.2059580000000003,97.78,34.99
23:47:02,3.1995560000000003,97.97,34.97
23:47:02,3.2008360000000002,97.97,34.97
23:47:02,3.2097990000000003,97.97,34.97
23:47:02,3.213639,97.97,34.97
23:47:03,3.2059580000000003,98.09,34.99
23:47:03,3.208518,98.09,34.99
23:47:03,3.208518,98.09,34.99
23:47:03,3.208518,98.09,34.99
23:47:04,3.2097990000000003,98.14,34.99
23:47:04,3.2110790000000002,98.14,34.99
23:47:04,3.202116,98.14,34.99
23:47:04,3.198276,98.14,34.99
23:47:05,3.194435,98.17,34.95
23:47:05,3.186753,98.17,34.95
23:47:05,3.1816310000000003,98.17,34.95
23:47:05,3.1816310000000003,98.17,34.95
23:47:06,3.17523,98.16,34.99
23:47:06,3.1739490000000004,98.16,34.99
23:47:06,3.162426,98.16,34.99
23:47:06,3.1739490000000004,98.16,34.99
23:47:07,3.158585,98.13,34.99
23:47:07,3.17523,98.13,34.99
23:47:07,3.172669,98.13,34.99
23:47:07,3.172669,98.13,34.99
23:47:08,3.152184,98.1,34.99
23:47:08,3.145782,98.1,34.99
23:47:08,3.143221,98.1,34.99
23:47:08,3.13938,98.1,34.99
23:47:09,3.13554,98.05,34.99
23:47:09,3.1381,98.05,34.99
23:47:09,3.13554,98.05,34.99
23:47:09,3.1381,98.05,34.99
23:47:10,3.131698,97.98,34.99
23:47:10,3.127857,97.98,34.99
23:47:10,3.124017,97.98,34.99
23:47:10,3.122736,97.98,34.99
23:47:11,3.118895,97.88,35.0
23:47:11,3.122736,97.88,35.0
23:47:11,3.126577,97.88,35.0
23:47:11,3.125297,97.88,35.0
23:47:12,3.126577,97.79,35.0
23:47:12,3.126577,97.79,35.0
23:47:12,3.132979,97.79,35.0
23:47:12,3.143221,97.79,35.0
23:47:13,3.152184,97.73,34.97
23:47:13,3.153464,97.73,34.97
23:47:13,3.144502,97.73,34.97
23:47:13,3.143221,97.73,34.97
23:47:14,3.13682,97.64,34.99
23:47:14,3.147063,97.64,34.99
23:47:14,3.140661,97.64,34.99
23:47:14,3.13682,97.64,34.99
23:47:15,3.132979,97.57,35.0
23:47:15,3.131698,97.57,35.0
23:47:15,3.130418,97.57,35.0
23:47:15,3.124017,97.57,35.0
23:47:16,3.122736,97.49,35.0
23:47:16,3.1176150000000002,97.49,35.0
23:47:16,3.116334,97.49,35.0
23:47:16,3.116334,97.49,35.0
23:47:17,3.112494,97.44,34.99
23:47:17,3.1176150000000002,97.44,34.99
23:47:17,3.112494,97.44,34.99
23:47:17,3.108653,97.44,34.99
23:47:18,3.1073720000000002,97.41,35.0
23:47:18,3.104812,97.41,35.0
23:47:18,3.102251,97.41,35.0
23:47:18,3.0996900000000003,97.41,35.0
23:47:19,3.09841,97.38,35.0
23:47:19,3.09713,97.38,35.0
23:47:19,3.090728,97.38,35.0
23:47:19,3.090728,97.38,35.0
23:47:20,3.086887,97.35,34.99
23:47:20,3.085607,97.35,34.99
23:47:20,3.084326,97.35,34.99
23:47:20,3.079205,97.35,34.99
23:47:21,3.074084,97.35,35.0
23:47:21,3.071523,97.35,35.0
23:47:21,3.074084,97.35,35.0
23:47:21,3.062561,97.35,35.0
23:47:22,3.066402,97.34,35.0
23:47:22,3.074084,97.34,35.0
23:47:22,3.071523,97.34,35.0
23:47:22,3.072803,97.34,35.0
23:47:23,3.072803,97.35,34.99
23:47:23,3.072803,97.35,34.99
23:47:23,3.071523,97.35,34.99
23:47:23,3.066402,97.35,34.99
23:47:24,3.070243,97.36,35.0
23:47:24,3.066402,97.36,35.0
23:47:24,3.072803,97.36,35.0
23:47:24,3.075364,97.36,35.0
23:47:25,3.081766,97.36,34.99
23:47:25,3.077925,97.36,34.99
23:47:25,3.080485,97.36,34.99
23:47:25,3.077925,97.36,34.99
23:47:26,3.072803,97.33,35.0
23:47:26,3.068962,97.33,35.0
23:47:26,3.062561,97.33,35.0
23:47:26,3.065121,97.33,35.0
23:47:27,3.074084,97.31,35.0
23:47:27,3.080485,97.31,35.0
23:47:27,3.079205,97.31,35.0
23:47:27,3.079205,97.31,35.0
23:47:28,3.074084,97.29,34.99
23:47:28,3.066402,97.29,34.99
23:47:28,3.062561,97.29,34.99
23:47:28,3.06,97.29,34.99
23:47:29,3.06,97.25,35.0
23:47:29,3.05872,97.25,35.0
23:47:29,3.056159,97.25,35.0
23:47:29,3.054879,97.25,35.0
23:47:30,3.05872,97.92,34.99
23:47:30,3.057439,97.92,34.99
23:47:30,3.053598,97.92,34.99
23:47:30,3.051038,97.92,34.99
23:47:31,3.047197,98.08,35.0
23:47:31,3.047197,98.08,35.0
23:47:31,3.051038,98.08,35.0
23:47:31,3.049757,98.08,35.0
23:47:32,3.0459169999999998,98.2,35.03
23:47:32,3.047197,98.2,35.03
23:47:32,3.043356,98.2,35.03
23:47:32,3.040795,98.2,35.03
23:47:33,3.039515,98.78,35.03
23:47:33,3.036954,98.78,35.03
23:47:33,3.035674,98.78,35.03
23:47:33,3.0318330000000002,98.78,35.03
23:47:34,3.030552,99.4,35.0
23:47:34,3.025431,99.4,35.0
23:47:34,3.024151,99.4,35.0
23:47:34,3.02159,99.4,35.0
23:47:35,3.01903,99.42,35.0
23:47:35,3.0139080000000003,99.42,35.0
23:47:35,3.011348,99.42,35.0
23:47:35,3.007507,99.42,35.0
23:47:36,3.006226,99.45,35.03
23:47:36,3.001105,99.45,35.03
23:47:36,2.998544,99.45,35.03
23:47:36,2.998544,99.45,35.03
23:47:37,2.995984,99.52,35.0
23:47:37,2.994703,99.52,35.0
23:47:37,2.994703,99.52,35.0
23:47:37,2.993423,99.52,35.0
23:47:38,2.992143,99.62,35.05
23:47:38,2.989582,99.62,35.05
23:47:38,2.989582,99.62,35.05
23:47:38,2.994703,99.62,35.05
23:47:39,2.992143,99.72,35.03
23:47:39,2.988302,99.72,35.03
23:47:39,2.98062,99.72,35.03
23:47:39,2.98318,99.72,35.03
23:47:40,2.9819,99.82,35.03
23:47:40,2.994703,99.82,35.03
23:47:40,3.002385,99.82,35.03
23:47:40,2.995984,99.82,35.03
23:47:41,3.001105,99.88,35.03
23:47:41,3.0139080000000003,99.88,35.03
23:47:41,3.008787,99.88,35.03
23:47:41,3.003666,99.88,35.03
23:47:42,3.001105,99.9,35.05
23:47:42,2.995984,99.9,35.05
23:47:42,2.990862,99.9,35.05
23:47:42,2.976779,99.9,35.05
23:47:43,2.972938,99.88,35.0
23:47:43,2.974218,99.88,35.0
23:47:43,2.969097,99.88,35.0
23:47:43,2.972938,99.88,35.0
23:47:44,2.975498,99.82,35.05
23:47:44,2.989582,99.82,35.05
23:47:44,2.9819,99.82,35.05
23:47:44,2.972938,99.82,35.05
23:47:45,2.969097,99.73,35.03
23:47:45,2.972938,99.73,35.03
23:47:45,2.969097,99.73,35.03
23:47:45,2.966536,99.73,35.03
23:47:46,2.955013,99.63,35.0
23:47:46,2.951172,99.63,35.0
23:47:46,2.951172,99.63,35.0
23:47:46,2.948611,99.63,35.0
23:47:47,2.947331,99.53,35.03
23:47:47,2.955013,99.53,35.03
23:47:47,2.970377,99.53,35.03
23:47:47,2.976779,99.53,35.03
23:47:48,2.985741,99.43,35.05
23:47:48,2.985741,99.43,35.05
23:47:48,2.987021,99.43,35.05
23:47:48,2.994703,99.43,35.05
23:47:49,2.9819,99.33,35.03
23:47:49,2.972938,99.33,35.03
23:47:49,2.970377,99.33,35.03
23:47:49,2.9819,99.33,35.03
23:47:50,2.979339,99.23,35.03
23:47:50,2.967816,99.23,35.03
23:47:50,2.957574,99.23,35.03
23:47:50,2.952452,99.23,35.03
23:47:51,2.9498919999999997,99.1,35.05
23:47:51,2.947331,99.1,35.05
23:47:51,2.94349,99.1,35.05
23:47:51,2.953263,99.1,35.05
23:47:52,2.953263,98.97,35.03
23:47:52,2.9443,98.97,35.03
23:47:52,2.94558,98.97,35.03
23:47:52,2.939179,98.97,35.03
23:47:53,2.9340580000000003,98.83,35.03
23:47:53,2.936618,98.83,35.03
23:47:53,2.94302,98.83,35.03
23:47:53,2.946861,98.83,35.03
23:47:54,2.94558,98.72,35.05
23:47:54,2.948141,98.72,35.05
23:47:54,2.946861,98.72,35.05
23:47:54,2.9417400000000002,98.72,35.05
23:47:55,2.926376,98.6,35.05
23:47:55,2.9212540000000002,98.6,35.05
23:47:55,2.9161330000000003,98.6,35.05
23:47:55,2.9199740000000003,98.6,35.05
23:47:56,2.9161330000000003,98.48,35.05
23:47:56,2.9250950000000002,98.48,35.05
23:47:56,2.9378990000000003,98.48,35.05
23:47:56,2.9443,98.48,35.05
23:47:57,2.950702,98.37,35.05
23:47:57,2.939179,98.37,35.05
23:47:57,2.922535,98.37,35.05
23:47:57,2.9161330000000003,98.37,35.05
23:47:58,2.912292,98.25,35.05
23:47:58,2.9058900000000003,98.25,35.05
23:47:58,2.9058900000000003,98.25,35.05
23:47:58,2.9135720000000003,98.25,35.05
23:47:59,2.9250950000000002,98.15,35.05
23:47:59,2.9212540000000002,98.15,35.05
23:47:59,2.90333,98.15,35.05
23:47:59,2.90333,98.15,35.05
23:48:00,2.8982080000000003,98.05,35.05
23:48:00,2.9020490000000003,98.05,35.05
23:48:00,2.9058900000000003,98.05,35.05
23:48:00,2.912292,98.05,35.05
23:48:01,2.900769,97.97,35.03
23:48:01,2.899489,97.97,35.03
23:48:01,2.894367,97.97,35.03
23:48:01,2.889246,97.97,35.03
23:48:02,2.887966,97.88,35.07
23:48:02,2.889246,97.88,35.07
23:48:02,2.9058900000000003,97.88,35.07
23:48:02,2.90461,97.88,35.07
23:48:03,2.907171,97.83,35.03
23:48:03,2.886685,97.83,35.03
23:48:03,2.880284,97.83,35.03
23:48:03,2.881564,97.83,35.03
23:48:04,2.880284,97.82,35.05
23:48:04,2.879004,97.82,35.05
23:48:04,2.877723,97.82,35.05
23:48:04,2.882844,97.82,35.05
23:48:05,2.882844,97.83,35.07
23:48:05,2.884125,97.83,35.07
23:48:05,2.885405,97.83,35.07
23:48:05,2.872602,97.83,35.07
23:48:06,2.868761,97.87,35.07
23:48:06,2.873882,97.87,35.07
23:48:06,2.868761,97.87,35.07
23:48:06,2.872602,97.87,35.07
23:48:07,2.879004,97.93,35.07
23:48:07,2.8982080000000003,97.93,35.07
23:48:07,2.900769,97.93,35.07
23:48:07,2.90333,97.93,35.07
23:48:08,2.899489,98.02,35.07
23:48:08,2.879004,98.02,35.07
23:48:08,2.871321,98.02,35.07
23:48:08,2.86364,98.02,35.07
23:48:09,2.86492,98.12,35.05
23:48:09,2.859799,98.12,35.05
23:48:09,2.861079,98.12,35.05
23:48:09,2.876443,98.12,35.05
23:48:10,2.86364,98.25,35.07
23:48:10,2.861079,98.25,35.07
23:48:10,2.857238,98.25,35.07
23:48:10,2.857238,98.25,35.07
23:48:11,2.853397,98.4,35.07
23:48:11,2.850836,98.4,35.07
23:48:11,2.846995,98.4,35.07
23:48:11,2.849556,98.4,35.07
23:48:12,2.846995,98.57,35.05
23:48:12,2.844434,98.57,35.05
23:48:12,2.836753,98.57,35.05
23:48:12,2.845715,98.57,35.05
23:48:13,2.836753,98.73,35.05
23:48:13,2.832912,98.73,35.05
23:48:13,2.8316310000000002,98.73,35.05
23:48:13,2.82523,98.73,35.05
23:48:14,2.82651,98.92,35.07
23:48:14,2.829071,98.92,35.07
23:48:14,2.836753,98.92,35.07
23:48:14,2.832912,98.92,35.07
23:48:15,2.832912,99.1,35.05
23:48:15,2.8277900000000002,99.1,35.05
23:48:15,2.822669,99.1,35.05
23:48:15,2.814987,99.1,35.05
23:48:16,2.812426,99.3,35.07
23:48:16,2.808585,99.3,35.07
23:48:16,2.804744,99.3,35.07
23:48:16,2.807305,99.3,35.07
23:48:17,2.818828,99.48,35.05
23:48:17,2.832912,99.48,35.05
23:48:17,2.817548,99.48,35.05
23:48:17,2.811146,99.48,35.05
23:48:18,2.806025,99.65,35.07
23:48:18,2.800903,99.65,35.07
23:48:18,2.798343,99.65,35.07
23:48:18,2.795782,99.65,35.07
23:48:19,2.795782,99.8,35.05
23:48:19,2.800903,99.8,35.05
23:48:19,2.800903,99.8,35.05
23:48:19,2.803464,99.8,35.05
23:48:20,2.799623,99.95,35.07
23:48:20,2.793221,99.95,35.07
23:48:20,2.789381,99.95,35.07
23:48:20,2.784259,99.95,35.07
23:48:21,2.781698,100.08,35.05
23:48:21,2.780418,100.08,35.05
23:48:21,2.781698,100.08,35.05
23:48:21,2.790661,100.08,35.05
23:48:22,2.794502,100.2,35.07
23:48:22,2.797062,100.2,35.07
23:48:22,2.795782,100.2,35.07
23:48:22,2.784259,100.2,35.07
23:48:23,2.779138,100.3,35.03
23:48:23,2.775297,100.3,35.03
23:48:23,2.7740169999999997,100.3,35.03
23:48:23,2.784259,100.3,35.03
23:48:24,2.795782,100.38,35.05
23:48:24,2.813707,100.38,35.05
23:48:24,2.8316310000000002,100.38,35.05
23:48:24,2.849556,100.38,35.05
23:48:25,2.870041,100.48,35.09
23:48:25,2.881564,100.48,35.09
23:48:25,2.887966,100.48,35.09
23:48:25,2.891807,100.48,35.09
23:48:26,2.891807,100.6,35.05
23:48:26,2.880284,100.6,35.05
23:48:26,2.877723,100.6,35.05
23:48:26,2.873882,100.6,35.05
23:48:27,2.854677,100.72,35.07
23:48:27,2.849556,100.72,35.07
23:48:27,2.8380330000000002,100.72,35.07
23:48:27,2.829071,100.72,35.07
23:48:28,2.821389,100.83,35.09
23:48:28,2.82651,100.83,35.09
23:48:28,2.830351,100.83,35.09
23:48:28,2.82523,100.83,35.09
23:48:29,2.8239490000000003,100.98,35.07
23:48:29,2.8201080000000003,100.98,35.07
23:48:29,2.811146,100.98,35.07
23:48:29,2.803464,100.98,35.07
23:48:30,2.799623,101.13,35.07
23:48:30,2.797062,101.13,35.07
23:48:30,2.791941,101.13,35.07
23:48:30,2.794502,101.13,35.07
23:48:31,2.798343,101.27,35.09
23:48:31,2.797062,101.27,35.09
23:48:31,2.798343,101.27,35.09
23:48:31,2.809866,101.27,35.09
23:48:32,2.822669,101.38,35.07
23:48:32,2.832912,101.38,35.07
23:48:32,2.846995,101.38,35.07
23:48:32,2.854677,101.38,35.07
23:48:33,2.854677,101.5,35.09
23:48:33,2.850836,101.5,35.09
23:48:33,2.829071,101.5,35.09
23:48:33,2.817548,101.5,35.09
23:48:34,2.809866,101.6,35.09
23:48:34,2.808585,101.6,35.09
23:48:34,2.802184,101.6,35.09
23:48:34,2.802184,101.6,35.09
23:48:35,2.809866,101.67,35.09
23:48:35,2.807305,101.67,35.09
23:48:35,2.800903,101.67,35.09
23:48:35,2.802184,101.67,35.09
23:48:36,2.7881,101.72,35.09
23:48:36,2.785539,101.72,35.09
23:48:36,2.782979,101.72,35.09
23:48:36,2.780418,101.72,35.09
23:48:37,2.784259,101.78,35.09
23:48:37,2.802184,101.78,35.09
23:48:37,2.806025,101.78,35.09
23:48:37,2.798343,101.78,35.09
23:48:38,2.78682,101.83,35.07
23:48:38,2.782979,101.83,35.07
23:48:38,2.7740169999999997,101.83,35.07
23:48:38,2.775297,101.83,35.07
23:48:39,2.7740169999999997,101.88,35.07
23:48:39,2.776577,101.88,35.07
23:48:39,2.790661,101.88,35.07
23:48:39,2.8239490000000003,101.88,35.07
23:48:40,2.86492,101.95,35.11
23:48:40,2.8982080000000003,101.95,35.11
23:48:40,2.9212540000000002,101.95,35.11
23:48:40,2.9276560000000003,101.95,35.11
23:48:41,2.9238150000000003,102.02,35.09
23:48:41,2.9212540000000002,102.02,35.09
23:48:41,2.907171,102.02,35.09
23:48:41,2.907171,102.02,35.09
23:48:42,2.886685,102.1,35.09
23:48:42,2.876443,102.1,35.09
23:48:42,2.86492,102.1,35.09
23:48:42,2.859799,102.1,35.09
23:48:43,2.850836,102.17,35.09
23:48:43,2.846995,102.17,35.09
23:48:43,2.843154,102.17,35.09
23:48:43,2.848276,102.17,35.09
23:48:44,2.848276,102.23,35.09
23:48:44,2.849556,102.23,35.09
23:48:44,2.843154,102.23,35.09
23:48:44,2.835472,102.23,35.09
23:48:45,2.829071,102.28,35.05
23:48:45,2.822669,102.28,35.05
23:48:45,2.822669,102.28,35.05
23:48:45,2.817548,102.28,35.05
23:48:46,2.818828,102.32,35.09
23:48:46,2.818828,102.32,35.09
23:48:46,2.822669,102.32,35.09
23:48:46,2.822669,102.32,35.09
23:48:47,2.809866,102.33,35.07
23:48:47,2.811146,102.33,35.07
23:48:47,2.803464,102.33,35.07
23:48:47,2.806025,102.33,35.07
23:48:48,2.817548,102.35,35.09
23:48:48,2.848276,102.35,35.09
23:48:48,2.868761,102.35,35.09
23:48:48,2.882844,102.35,35.09
23:48:49,2.894367,102.37,35.13
23:48:49,2.891807,102.37,35.13
23:48:49,2.887966,102.37,35.13
23:48:49,2.882844,102.37,35.13
23:48:50,2.861079,102.4,35.11
23:48:50,2.848276,102.4,35.11
23:48:50,2.840594,102.4,35.11
23:48:50,2.8277900000000002,102.4,35.11
23:48:51,2.82523,102.47,35.11
23:48:51,2.8201080000000003,102.47,35.11
23:48:51,2.816267,102.47,35.11
23:48:51,2.816267,102.47,35.11
23:48:52,2.82523,102.57,35.11
23:48:52,2.822669,102.57,35.11
23:48:52,2.8277900000000002,102.57,35.11
23:48:52,2.8201080000000003,102.57,35.11
23:48:53,2.812426,102.67,35.11
23:48:53,2.807305,102.67,35.11
23:48:53,2.806025,102.67,35.11
23:48:53,2.803464,102.67,35.11
23:48:54,2.797062,102.77,35.09
23:48:54,2.794502,102.77,35.09
23:48:54,2.812426,102.77,35.09
23:48:54,2.809866,102.77,35.09
23:48:55,2.798343,102.87,35.09
23:48:55,2.793221,102.87,35.09
23:48:55,2.791941,102.87,35.09
23:48:55,2.790661,102.87,35.09
23:48:56,2.7881,102.97,35.11
23:48:56,2.78682,102.97,35.11
23:48:56,2.790661,102.97,35.11
23:48:56,2.800903,102.97,35.11
23:48:57,2.834192,103.07,35.13
23:48:57,2.86364,103.07,35.13
23:48:57,2.877723,103.07,35.13
23:48:57,2.884125,103.07,35.13
23:48:58,2.891807,103.17,35.09
23:48:58,2.893087,103.17,35.09
23:48:58,2.882844,103.17,35.09
23:48:58,2.868761,103.17,35.09
23:48:59,2.858518,103.27,35.11
23:48:59,2.846995,103.27,35.11
23:48:59,2.840594,103.27,35.11
23:48:59,2.836753,103.27,35.11
23:49:00,2.832912,103.37,35.11
23:49:00,2.82523,103.37,35.11
23:49:00,2.8316310000000002,103.37,35.11
23:49:00,2.813707,103.37,35.11
23:49:01,2.804744,103.47,35.11
23:49:01,2.800903,103.47,35.11
23:49:01,2.798343,103.47,35.11
23:49:01,2.793221,103.47,35.11
23:49:02,2.795782,103.57,35.11
23:49:02,2.804744,103.57,35.11
23:49:02,2.797062,103.57,35.11
23:49:02,2.790661,103.57,35.11
23:49:03,2.791941,103.68,35.11
23:49:03,2.782979,103.68,35.11
23:49:03,2.784259,103.68,35.11
23:49:03,2.784259,103.68,35.11
23:49:04,2.782979,103.8,35.11
23:49:04,2.793221,103.8,35.11
23:49:04,2.822669,103.8,35.11
23:49:04,2.861079,103.8,35.11
23:49:05,2.873882,103.9,35.11
23:49:05,2.887966,103.9,35.11
23:49:05,2.890527,103.9,35.11
23:49:05,2.891807,103.9,35.11
23:49:06,2.881564,104.0,35.09
23:49:06,2.876443,104.0,35.09
23:49:06,2.857238,104.0,35.09
23:49:06,2.852117,104.0,35.09
23:49:07,2.832912,104.08,35.11
23:49:07,2.8239490000000003,104.08,35.11
23:49:07,2.822669,104.08,35.11
23:49:07,2.812426,104.08,35.11
23:49:08,2.808585,104.15,35.11
23:49:08,2.808585,104.15,35.11
23:49:08,2.803464,104.15,35.11
23:49:08,2.799623,104.15,35.11
23:49:09,2.804744,104.22,35.11
23:49:09,2.799623,104.22,35.11
23:49:09,2.791941,104.22,35.11
23:49:09,2.791941,104.22,35.11
23:49:10,2.795782,104.25,35.11
23:49:10,2.800903,104.25,35.11
23:49:10,2.793221,104.25,35.11
23:49:10,2.789381,104.25,35.11
23:49:11,2.7881,104.28,35.11
23:49:11,2.7881,104.28,35.11
23:49:11,2.790661,104.28,35.11
23:49:11,2.798343,104.28,35.11
23:49:12,2.798343,104.3,35.11
23:49:12,2.790661,104.3,35.11
23:49:12,2.789381,104.3,35.11
23:49:12,2.771456,104.3,35.11
23:49:13,2.771456,104.3,35.11
23:49:13,2.771456,104.3,35.11
23:49:13,2.771456,104.3,35.11
23:49:13,2.767615,104.3,35.11
23:49:14,2.78682,104.27,35.11
23:49:14,2.797062,104.27,35.11
23:49:14,2.797062,104.27,35.11
23:49:14,2.799623,104.27,35.11
23:49:15,2.811146,104.22,35.15
23:49:15,2.813707,104.22,35.15
23:49:15,2.812426,104.22,35.15
23:49:15,2.797062,104.22,35.15
23:49:16,2.7881,104.15,35.13
23:49:16,2.78682,104.15,35.13
23:49:16,2.781698,104.15,35.13
23:49:16,2.782979,104.15,35.13
23:49:17,2.781698,104.07,35.13
23:49:17,2.784259,104.07,35.13
23:49:17,2.78682,104.07,35.13
23:49:17,2.802184,104.07,35.13
23:49:18,2.793221,103.98,35.11
23:49:18,2.793221,103.98,35.11
23:49:18,2.790661,103.98,35.11
23:49:18,2.78682,103.98,35.11
23:49:19,2.780418,103.92,35.11
23:49:19,2.782979,103.92,35.11
23:49:19,2.776577,103.92,35.11
23:49:19,2.7663349999999998,103.92,35.11
23:49:20,2.762494,103.85,35.11
23:49:20,2.767615,103.85,35.11
23:49:20,2.772736,103.85,35.11
23:49:20,2.753531,103.85,35.11
23:49:21,2.750971,103.8,35.13
23:49:21,2.74841,103.8,35.13
23:49:21,2.743289,103.8,35.13
23:49:21,2.739448,103.8,35.13
23:49:22,2.738167,103.78,35.15
23:49:22,2.736887,103.78,35.15
23:49:22,2.734326,103.78,35.15
23:49:22,2.74841,103.78,35.15
23:49:23,2.74841,103.78,35.13
23:49:23,2.753531,103.78,35.13
23:49:23,2.753531,103.78,35.13
23:49:23,2.745849,103.78,35.13
23:49:24,2.744569,103.82,35.13
23:49:24,2.733046,103.82,35.13
23:49:24,2.724084,103.82,35.13
23:49:24,2.718962,103.82,35.13
23:49:25,2.718962,103.85,35.13
23:49:25,2.718962,103.85,35.13
23:49:25,2.718962,103.85,35.13
23:49:25,2.721523,103.85,35.13
23:49:26,2.725364,103.88,35.13
23:49:26,2.717682,103.88,35.13
23:49:26,2.731766,103.88,35.13
23:49:26,2.727925,103.88,35.13
23:49:27,2.731766,103.92,35.15
23:49:27,2.720243,103.92,35.15
23:49:27,2.712561,103.92,35.15
23:49:27,2.712561,103.92,35.15
23:49:28,2.706159,103.95,35.13
23:49:28,2.70872,103.95,35.13
23:49:28,2.707439,103.95,35.13
23:49:28,2.70872,103.95,35.13
23:49:29,2.707439,103.97,35.13
23:49:29,2.716402,103.97,35.13
23:49:29,2.715122,103.97,35.13
23:49:29,2.717682,103.97,35.13
23:49:30,2.726644,103.98,35.15
23:49:30,2.730485,103.98,35.15
23:49:30,2.731766,103.98,35.15
23:49:30,2.729205,103.98,35.15
23:49:31,2.729205,104.0,35.15
23:49:31,2.735607,104.0,35.15
23:49:31,2.734326,104.0,35.15
23:49:31,2.727925,104.0,35.15
23:49:32,2.727925,104.02,35.16
23:49:32,2.735607,104.02,35.16
23:49:32,2.731766,104.02,35.16
23:49:32,2.730485,104.02,35.16
23:49:33,2.729205,104.05,35.15
23:49:33,2.727925,104.05,35.15
23:49:33,2.721523,104.05,35.15
23:49:33,2.731766,104.05,35.15
23:49:34,2.727925,104.08,35.15
23:49:34,2.726644,104.08,35.15
23:49:34,2.716402,104.08,35.15
23:49:34,2.704879,104.08,35.15
23:49:35,2.701038,104.13,35.15
23:49:35,2.701038,104.13,35.15
23:49:35,2.698477,104.13,35.15
23:49:35,2.699757,104.13,35.15
23:49:36,2.704879,104.2,35.13
23:49:36,2.707439,104.2,35.13
23:49:36,2.706159,104.2,35.13
23:49:36,2.70872,104.2,35.13
23:49:37,2.713841,104.25,35.15
23:49:37,2.712561,104.25,35.15
23:49:37,2.712561,104.25,35.15
23:49:37,2.706159,104.25,35.15
23:49:38,2.701038,104.28,35.15
23:49:38,2.694636,104.28,35.15
23:49:38,2.692075,104.28,35.15
23:49:38,2.692075,104.28,35.15
23:49:39,2.689515,104.32,35.15
23:49:39,2.684393,104.32,35.15
23:49:39,2.684393,104.32,35.15
23:49:39,2.683113,104.32,35.15
23:49:40,2.683113,104.32,35.15
23:49:40,2.681833,104.32,35.15
23:49:40,2.692075,104.32,35.15
23:49:40,2.681833,104.32,35.15
23:49:41,2.681833,104.32,35.15
23:49:41,2.680552,104.32,35.15
23:49:41,2.6779919999999997,104.32,35.15
23:49:41,2.675431,104.32,35.15
23:49:42,2.6703099999999997,104.28,35.15
23:49:42,2.6728709999999998,104.28,35.15
23:49:42,2.680552,104.28,35.15
23:49:42,2.684393,104.28,35.15
23:49:43,2.694636,104.25,35.16
23:49:43,2.694636,104.25,35.16
23:49:43,2.694636,104.25,35.16
23:49:43,2.694636,104.25,35.16
23:49:44,2.695916,104.2,35.15
23:49:44,2.692075,104.2,35.15
23:49:44,2.686954,104.2,35.15
23:49:44,2.680552,104.2,35.15
23:49:45,2.679272,104.13,35.15
23:49:45,2.6767119999999998,104.13,35.15
23:49:45,2.669029,104.13,35.15
23:49:45,2.669029,104.13,35.15
23:49:46,2.669029,104.07,35.16
23:49:46,2.667749,104.07,35.16
23:49:46,2.669029,104.07,35.16
23:49:46,2.665189,104.07,35.16
23:49:47,2.6626279999999998,103.98,35.15
23:49:47,2.663908,103.98,35.15
23:49:47,2.658787,103.98,35.15
23:49:47,2.6626279999999998,103.98,35.15
23:49:48,2.669029,103.9,35.15
23:49:48,2.6767119999999998,103.9,35.15
23:49:48,2.681833,103.9,35.15
23:49:48,2.683113,103.9,35.15
23:49:49,2.685674,103.82,35.16
23:49:49,2.680552,103.82,35.16
23:49:49,2.6779919999999997,103.82,35.16
23:49:49,2.67159,103.82,35.16
23:49:50,2.665189,103.73,35.15
23:49:50,2.663908,103.73,35.15
23:49:50,2.6600669999999997,103.73,35.15
23:49:50,2.654946,103.73,35.15
23:49:51,2.654946,103.65,35.18
23:49:51,2.653666,103.65,35.18
23:49:51,2.648544,103.65,35.18
23:49:51,2.647264,103.65,35.18
23:49:52,2.661348,103.55,35.16
23:49:52,2.686954,103.55,35.16
23:49:52,2.734326,103.55,35.16
23:49:52,2.7663349999999998,103.55,35.16
23:49:53,2.797062,103.47,35.18
23:49:53,2.813707,103.47,35.18
23:49:53,2.818828,103.47,35.18
23:49:53,2.809866,103.47,35.18
23:49:54,2.803464,103.38,35.16
23:49:54,2.790661,103.38,35.16
23:49:54,2.775297,103.38,35.16
23:49:54,2.762494,103.38,35.16
23:49:55,2.74969,103.3,35.18
23:49:55,2.7420080000000002,103.3,35.18
23:49:55,2.731766,103.3,35.18
23:49:55,2.725364,103.3,35.18
23:49:56,2.717682,103.23,35.16
23:49:56,2.720243,103.23,35.16
23:49:56,2.712561,103.23,35.16
23:49:56,2.71128,103.23,35.16
23:49:57,2.704879,103.17,35.16
23:49:57,2.706159,103.17,35.16
23:49:57,2.701038,103.17,35.16
23:49:57,2.697197,103.17,35.16
23:49:58,2.694636,103.1,35.21
23:49:58,2.695916,103.1,35.21
23:49:58,2.690795,103.1,35.21
23:49:58,2.689515,103.1,35.21
23:49:59,2.701038,103.03,35.18
23:49:59,2.702318,103.03,35.18
23:49:59,2.706159,103.03,35.18
23:49:59,2.703598,103.03,35.18
23:50:00,2.702318,102.98,35.18
23:50:00,2.702318,102.98,35.18
23:50:00,2.707439,102.98,35.18
23:50:00,2.702318,102.98,35.18
23:50:01,2.697197,102.93,35.16
23:50:01,2.694636,102.93,35.16
23:50:01,2.689515,102.93,35.16
23:50:01,2.6882349999999997,102.93,35.16
23:50:02,2.683113,102.9,35.18
23:50:02,2.680552,102.9,35.18
23:50:02,2.6779919999999997,102.9,35.18
23:50:02,2.6741509999999997,102.9,35.18
23:50:03,2.6703099999999997,102.85,35.21
23:50:03,2.6664689999999998,102.85,35.21
23:50:03,2.669029,102.85,35.21
23:50:03,2.667749,102.85,35.21
23:50:04,2.667749,102.82,35.18
23:50:04,2.6664689999999998,102.82,35.18
23:50:04,2.669029,102.82,35.18
23:50:04,2.669029,102.82,35.18
23:50:05,2.6703099999999997,102.78,35.21
23:50:05,2.680552,102.78,35.21
23:50:05,2.680552,102.78,35.21
23:50:05,2.6882349999999997,102.78,35.21
23:50:06,2.690795,102.75,35.18
23:50:06,2.692075,102.75,35.18
23:50:06,2.692075,102.75,35.18
23:50:06,2.6882349999999997,102.75,35.18
23:50:07,2.683113,102.72,35.21
23:50:07,2.680552,102.72,35.21
23:50:07,2.6741509999999997,102.72,35.21
23:50:07,2.6703099999999997,102.72,35.21
23:50:08,2.67159,102.67,35.21
23:50:08,2.6664689999999998,102.67,35.21
23:50:08,2.6626279999999998,102.67,35.21
23:50:08,2.661348,102.67,35.21
23:50:09,2.6626279999999998,102.58,35.23
23:50:09,2.663908,102.58,35.23
23:50:09,2.704879,102.58,35.23
23:50:09,2.789381,102.58,35.23
23:50:10,2.911012,102.48,35.21
23:50:10,3.0352040000000002,102.48,35.21
23:50:10,3.1197049999999997,102.48,35.21
23:50:10,3.140191,102.48,35.21
23:50:11,3.147872,102.37,35.21
23:50:11,3.156835,102.37,35.21
23:50:11,3.1427509999999996,102.37,35.21
23:50:11,3.1222659999999998,102.37,35.21
23:50:12,3.096659,102.25,35.23
23:50:12,3.073613,102.25,35.23
23:50:12,3.049287,102.25,35.23
23:50:12,3.051848,102.25,35.23
23:50:13,3.092818,102.13,35.23
23:50:13,3.151714,102.13,35.23
23:50:13,3.200366,102.13,35.23
23:50:13,3.2298139999999997,102.13,35.23
23:50:14,3.236215,102.05,35.23
23:50:14,3.2349349999999997,102.05,35.23
23:50:14,3.2195709999999997,102.05,35.23
23:50:14,3.190123,102.05,35.23
23:50:15,3.159395,101.98,35.25
23:50:15,3.129948,101.98,35.25
23:50:15,3.110743,101.98,35.25
23:50:15,3.095379,101.98,35.25
23:50:16,3.082576,101.92,35.21
23:50:16,3.092818,101.92,35.21
23:50:16,3.1209860000000003,101.92,35.21
23:50:16,3.149153,101.92,35.21
23:50:17,3.169638,101.85,35.23
23:50:17,3.183722,101.85,35.23
23:50:17,3.190123,101.85,35.23
23:50:17,3.188843,101.85,35.23
23:50:18,3.182441,101.77,35.23
23:50:18,3.168358,101.77,35.23
23:50:18,3.152994,101.77,35.23
23:50:18,3.1427509999999996,101.77,35.23
23:50:19,3.1273869999999997,101.67,35.27
23:50:19,3.1158639999999997,101.67,35.27
23:50:19,3.1056220000000003,101.67,35.27
23:50:19,3.09922,101.67,35.27
23:50:20,3.091538,101.55,35.25
23:50:20,3.091538,101.55,35.25
23:50:20,3.092818,101.55,35.25
23:50:20,3.083856,101.55,35.25
23:50:21,3.083856,101.42,35.25
23:50:21,3.078735,101.42,35.25
23:50:21,3.074894,101.42,35.25
23:50:21,3.071053,101.42,35.25
23:50:22,3.067212,101.27,35.23
23:50:22,3.06081,101.27,35.23
23:50:22,3.054409,101.27,35.23
23:50:22,3.050568,101.27,35.23
23:50:23,3.048007,101.1,35.29
23:50:23,3.044166,101.1,35.29
23:50:23,3.044166,101.1,35.29
23:50:23,3.044166,101.1,35.29
23:50:24,3.042886,100.93,35.27
23:50:24,3.044166,100.93,35.27
23:50:24,3.040325,100.93,35.27
23:50:24,3.040325,100.93,35.27
23:50:25,3.039045,100.77,35.27
23:50:25,3.039045,100.77,35.27
23:50:25,3.037764,100.77,35.27
23:50:25,3.032643,100.77,35.27
23:50:26,3.030082,100.6,35.27
23:50:26,3.030082,100.6,35.27
23:50:26,3.0249610000000002,100.6,35.27
23:50:26,3.0224,100.6,35.27
23:50:27,3.0211200000000002,100.43,35.27
23:50:27,3.018559,100.43,35.27
23:50:27,3.0159990000000003,100.43,35.27
23:50:27,3.0134380000000003,100.43,35.27
23:50:28,3.0108770000000002,100.27,35.27
23:50:28,3.008317,100.27,35.27
23:50:28,3.0057560000000003,100.27,35.27
23:50:28,3.0019150000000003,100.27,35.27
23:50:29,3.0031950000000003,100.08,35.29
23:50:29,2.9980740000000003,100.08,35.29
23:50:29,2.991673,100.08,35.29
23:50:29,2.991673,100.08,35.29
23:50:30,2.9878310000000003,99.88,35.29
23:50:30,2.989112,99.88,35.29
23:50:30,2.98271,99.88,35.29
23:50:30,2.98143,99.88,35.29
23:50:31,2.976309,99.7,35.31
23:50:31,2.977589,99.7,35.31
23:50:31,2.977589,99.7,35.31
23:50:31,2.973748,99.7,35.31
23:50:32,2.971187,99.5,35.31
23:50:32,2.972467,99.5,35.31
23:50:32,2.969907,99.5,35.31
23:50:32,2.973748,99.5,35.31
23:50:33,2.971187,99.28,35.29
23:50:33,2.969907,99.28,35.29
23:50:33,2.969907,99.28,35.29
23:50:33,2.972467,99.28,35.29
23:50:34,2.967346,99.07,35.31
23:50:34,2.968626,99.07,35.31
23:50:34,2.967346,99.07,35.31
23:50:34,2.964786,99.07,35.31
23:50:35,2.960945,98.85,35.29
23:50:35,2.968626,98.85,35.29
23:50:35,2.962225,98.85,35.29
23:50:35,2.963505,98.85,35.29
23:50:36,2.959664,98.63,35.31
23:50:36,2.959664,98.63,35.31
23:50:36,2.954543,98.63,35.31
23:50:36,2.958384,98.63,35.31
23:50:37,2.954543,98.43,35.33
23:50:37,2.955823,98.43,35.33
23:50:37,2.954543,98.43,35.33
23:50:37,2.953263,98.43,35.33
23:50:38,2.951982,98.27,35.33
23:50:38,2.957103,98.27,35.33
23:50:38,2.957103,98.27,35.33
23:50:38,2.955823,98.27,35.33
23:50:39,2.958384,98.12,35.33
23:50:39,2.959664,98.12,35.33
23:50:39,2.955823,98.12,35.33
23:50:39,2.954543,98.12,35.33
23:50:40,2.953263,97.98,35.33
23:50:40,2.949422,97.98,35.33
23:50:40,2.951982,97.98,35.33
23:50:40,2.951982,97.98,35.33
23:50:41,2.94302,97.88,35.34
23:50:41,2.94302,97.88,35.34
23:50:41,2.9378990000000003,97.88,35.34
23:50:41,2.9353380000000002,97.88,35.34
23:50:42,2.9340580000000003,97.82,35.34
23:50:42,2.9340580000000003,97.82,35.34
23:50:42,2.9340580000000003,97.82,35.34
23:50:42,2.9314970000000002,97.82,35.34
23:50:43,2.9314970000000002,97.77,35.31
23:50:43,2.930217,97.77,35.31
23:50:43,2.928936,97.77,35.31
23:50:43,2.928936,97.77,35.31
23:50:44,2.9276560000000003,97.73,35.33
23:50:44,2.928936,97.73,35.33
23:50:44,2.922535,97.73,35.33
23:50:44,2.9238150000000003,97.73,35.33
23:50:45,2.922535,97.7,35.34
23:50:45,2.922535,97.7,35.34
23:50:45,2.918694,97.7,35.34
23:50:45,2.9199740000000003,97.7,35.34
23:50:46,2.914853,97.68,35.33
23:50:46,2.914853,97.68,35.33
23:50:46,2.9161330000000003,97.68,35.33
23:50:46,2.914853,97.68,35.33
23:50:47,2.9135720000000003,97.67,35.34
23:50:47,2.911012,97.67,35.34
23:50:47,2.907171,97.67,35.34
23:50:47,2.9097310000000003,97.67,35.34
23:50:48,2.908451,97.65,35.37
23:50:48,2.9058900000000003,97.65,35.37
23:50:48,2.907171,97.65,35.37
23:50:48,2.9058900000000003,97.65,35.37
23:50:49,2.9058900000000003,97.63,35.37
23:50:49,2.9097310000000003,97.63,35.37
23:50:49,2.908451,97.63,35.37
23:50:49,2.90333,97.63,35.37
23:50:50,2.9058900000000003,97.58,35.34
23:50:50,2.90333,97.58,35.34
23:50:50,2.9020490000000003,97.58,35.34
23:50:50,2.9020490000000003,97.58,35.34
23:50:51,2.90333,97.52,35.34
23:50:51,2.899489,97.52,35.34
23:50:51,2.895648,97.52,35.34
23:50:51,2.894367,97.52,35.34
23:50:52,2.894367,97.45,35.37
23:50:52,2.891807,97.45,35.37
23:50:52,2.893087,97.45,35.37
23:50:52,2.891807,97.45,35.37
23:50:53,2.891807,97.37,35.37
23:50:53,2.887966,97.37,35.37
23:50:53,2.886685,97.37,35.37
23:50:53,2.886685,97.37,35.37
23:50:54,2.886685,97.28,35.39
23:50:54,2.885405,97.28,35.39
23:50:54,2.880284,97.28,35.39
23:50:54,2.882844,97.28,35.39
23:50:55,2.880284,97.2,35.39
23:50:55,2.882844,97.2,35.39
23:50:55,2.880284,97.2,35.39
23:50:55,2.884125,97.2,35.39
23:50:56,2.882844,97.1,35.37
23:50:56,2.884125,97.1,35.37
23:50:56,2.879004,97.1,35.37
23:50:56,2.882844,97.1,35.37
23:50:57,2.886685,97.0,35.39
23:50:57,2.8982080000000003,97.0,35.39
23:50:57,2.895648,97.0,35.39
23:50:57,2.894367,97.0,35.39
23:50:58,2.894367,96.9,35.37
23:50:58,2.8982080000000003,96.9,35.37
23:50:58,2.9161330000000003,96.9,35.37
23:50:58,2.94558,96.9,35.37
23:50:59,2.9980740000000003,96.8,35.39
23:50:59,3.037764,96.8,35.39
23:50:59,3.068492,96.8,35.39
23:50:59,3.081295,96.8,35.39
23:51:00,3.085136,96.67,35.37
23:51:00,3.086417,96.67,35.37
23:51:00,3.082576,96.67,35.37
23:51:00,3.065932,96.67,35.37
23:51:01,3.058249,96.53,35.39
23:51:01,3.046726,96.53,35.39
23:51:01,3.0352040000000002,96.53,35.39
23:51:01,3.028802,96.53,35.39
23:51:02,3.028802,96.38,35.39
23:51:02,3.032643,96.38,35.39
23:51:02,3.048007,96.38,35.39
23:51:02,3.095379,96.38,35.39
23:51:03,3.144032,96.25,35.41
23:51:03,3.190123,96.25,35.41
23:51:03,3.2234119999999997,96.25,35.41
23:51:03,3.2374959999999997,96.25,35.41
23:51:04,3.2413369999999997,96.1,35.39
23:51:04,3.233654,96.1,35.39
23:51:04,3.2195709999999997,96.1,35.39
23:51:04,3.199086,96.1,35.39
23:51:05,3.190123,95.97,35.39
23:51:05,3.2234119999999997,95.97,35.39
23:51:05,3.3040730000000003,95.97,35.39
23:51:05,3.4064989999999997,95.97,35.39
23:51:06,3.4730760000000003,95.85,35.39
23:51:06,3.577253,95.85,35.39
23:51:06,3.6207839999999996,95.85,35.39
23:51:06,3.64511,95.85,35.39
23:51:07,3.634868,95.73,35.41
23:51:07,3.611822,95.73,35.41
23:51:07,3.6054199999999996,95.73,35.41
23:51:07,3.6207839999999996,95.73,35.41
23:51:08,3.637428,95.65,35.41
23:51:08,3.6515120000000003,95.65,35.41
23:51:08,3.64255,95.65,35.41
23:51:08,3.6259059999999996,95.65,35.41
23:51:09,3.6002989999999997,95.58,35.41
23:51:09,3.5631690000000003,95.58,35.41
23:51:09,3.5221989999999996,95.58,35.41
23:51:09,3.48635,95.58,35.41
23:51:10,3.458182,95.55,35.41
23:51:10,3.4415379999999995,95.55,35.41
23:51:10,3.422333,95.55,35.41
23:51:10,3.4108099999999997,95.55,35.41
23:51:11,3.40825,95.53,35.39
23:51:11,3.396727,95.53,35.39
23:51:11,3.389045,95.53,35.39
23:51:11,3.381363,95.53,35.39
23:51:12,3.373681,95.5,35.41
23:51:12,3.364718,95.5,35.41
23:51:12,3.373681,95.5,35.41
23:51:12,3.442818,95.5,35.41
23:51:13,3.5401230000000004,95.47,35.43
23:51:13,3.6412690000000003,95.47,35.43
23:51:13,3.7014449999999997,95.47,35.43
23:51:13,3.738574,95.47,35.43
23:51:14,3.7500970000000002,95.43,35.41
23:51:14,3.7500970000000002,95.43,35.41
23:51:14,3.72065,95.43,35.41
23:51:14,3.674558,95.43,35.41
23:51:15,3.6361480000000004,95.4,35.45
23:51:15,3.596458,95.4,35.45
23:51:15,3.5606089999999995,95.4,35.45
23:51:15,3.538843,95.4,35.45
23:51:16,3.5196379999999996,95.38,35.45
23:51:16,3.5093959999999997,95.38,35.45
23:51:16,3.52604,95.38,35.45
23:51:16,3.5849349999999998,95.38,35.45
23:51:17,3.650232,95.38,35.45
23:51:17,3.689922,95.38,35.45
23:51:17,3.72321,95.38,35.45
23:51:17,3.738574,95.38,35.45
23:51:18,3.733453,95.4,35.47
23:51:18,3.7065660000000005,95.4,35.47
23:51:18,3.665596,95.4,35.47
23:51:18,3.6284660000000004,95.4,35.47
23:51:19,3.5926169999999997,95.43,35.45
23:51:19,3.569571,95.43,35.45
23:51:19,3.5606089999999995,95.43,35.45
23:51:19,3.5926169999999997,95.43,35.45
23:51:20,3.660474,95.48,35.45
23:51:20,3.72321,95.48,35.45
23:51:20,3.7641809999999998,95.48,35.45
23:51:20,3.766742,95.48,35.45
23:51:21,3.7718629999999997,95.53,35.47
23:51:21,3.774424,95.53,35.47
23:51:21,3.75906,95.53,35.47
23:51:21,3.7398550000000004,95.53,35.47
23:51:22,3.715528,95.58,35.45
23:51:22,3.6912019999999997,95.58,35.45
23:51:22,3.6617550000000003,95.58,35.45
23:51:22,3.6412690000000003,95.58,35.45
23:51:23,3.6361480000000004,95.63,35.45
23:51:23,3.647671,95.63,35.45
23:51:23,3.652792,95.63,35.45
23:51:23,3.657914,95.63,35.45
23:51:24,3.6515120000000003,95.67,35.45
23:51:24,3.64511,95.67,35.45
23:51:24,3.637428,95.67,35.45
23:51:24,3.650232,95.67,35.45
23:51:25,3.6694370000000003,95.72,35.47
23:51:25,3.6835199999999997,95.72,35.47
23:51:25,3.687361,95.72,35.47
23:51:25,3.6835199999999997,95.72,35.47
23:51:26,3.674558,95.77,35.47
23:51:26,3.6566330000000002,95.77,35.47
23:51:26,3.64255,95.77,35.47
23:51:26,3.629746,95.77,35.47
23:51:27,3.6182230000000004,95.83,35.47
23:51:27,3.611822,95.83,35.47
23:51:27,3.6028589999999996,95.83,35.47
23:51:27,3.6002989999999997,95.83,35.47
23:51:28,3.596458,95.9,35.47
23:51:28,3.596458,95.9,35.47
23:51:28,3.5977379999999997,95.9,35.47
23:51:28,3.596458,95.9,35.47
23:51:29,3.5951769999999996,95.98,35.47
23:51:29,3.5926169999999997,95.98,35.47
23:51:29,3.5849349999999998,95.98,35.47
23:51:29,3.5759730000000003,95.98,35.47
23:51:30,3.5682910000000003,96.08,35.49
23:51:30,3.56445,96.08,35.49
23:51:30,3.559328,96.08,35.49
23:51:30,3.5580480000000003,96.08,35.49
23:51:31,3.5554870000000003,96.18,35.49
23:51:31,3.56701,96.18,35.49
23:51:31,3.569571,96.18,35.49
23:51:31,3.5657300000000003,96.18,35.49
23:51:32,3.551646,96.3,35.49
23:51:32,3.556768,96.3,35.49
23:51:32,3.5554870000000003,96.3,35.49
23:51:32,3.561889,96.3,35.49
23:51:33,3.569571,96.42,35.49
23:51:33,3.569571,96.42,35.49
23:51:33,3.569571,96.42,35.49
23:51:33,3.5631690000000003,96.42,35.49
23:51:34,3.556768,96.53,35.47
23:51:34,3.5529269999999995,96.53,35.47
23:51:34,3.541404,96.53,35.47
23:51:34,3.538843,96.53,35.47
23:51:35,3.5324410000000004,96.63,35.49
23:51:35,3.538843,96.63,35.49
23:51:35,3.5247599999999997,96.63,35.49
23:51:35,3.5221989999999996,96.63,35.49
23:51:36,3.518358,96.72,35.49
23:51:36,3.513237,96.72,35.49
23:51:36,3.510676,96.72,35.49
23:51:36,3.5068349999999997,96.72,35.49
23:51:37,3.505554,96.77,35.5
23:51:37,3.5017139999999998,96.77,35.5
23:51:37,3.500433,96.77,35.5
23:51:37,3.502994,96.77,35.5
23:51:38,3.502994,96.78,35.5
23:51:38,3.508115,96.78,35.5
23:51:38,3.510676,96.78,35.5
23:51:38,3.5145169999999997,96.78,35.5
23:51:39,3.5286,96.77,35.5
23:51:39,3.536282,96.77,35.5
23:51:39,3.541404,96.77,35.5
23:51:39,3.5452449999999995,96.77,35.5
23:51:40,3.5426839999999995,96.73,35.5
23:51:40,3.5426839999999995,96.73,35.5
23:51:40,3.5426839999999995,96.73,35.5
23:51:40,3.5298809999999996,96.73,35.5
23:51:41,3.5247599999999997,96.67,35.5
23:51:41,3.5170769999999996,96.67,35.5
23:51:41,3.510676,96.67,35.5
23:51:41,3.510676,96.67,35.5
23:51:42,3.5042739999999997,96.58,35.5
23:51:42,3.5017139999999998,96.58,35.5
23:51:42,3.5042739999999997,96.58,35.5
23:51:42,3.4978730000000002,96.58,35.5
23:51:43,3.4978730000000002,96.5,35.55
23:51:43,3.4914709999999998,96.5,35.55
23:51:43,3.495312,96.5,35.55
23:51:43,3.4901910000000003,96.5,35.55
23:51:44,3.4889099999999997,96.42,35.5
23:51:44,3.4889099999999997,96.42,35.5
23:51:44,3.4889099999999997,96.42,35.5
23:51:44,3.492751,96.42,35.5
23:51:45,3.4914709999999998,96.33,35.5
23:51:45,3.4914709999999998,96.33,35.5
23:51:45,3.4889099999999997,96.33,35.5
23:51:45,3.4901910000000003,96.33,35.5
23:51:46,3.4889099999999997,96.25,35.49
23:51:46,3.4991529999999997,96.25,35.49
23:51:46,3.4940309999999997,96.25,35.49
23:51:46,3.4940309999999997,96.25,35.49
23:51:47,3.492751,96.17,35.5
23:51:47,3.4965919999999997,96.17,35.5
23:51:47,3.4965919999999997,96.17,35.5
23:51:47,3.492751,96.17,35.5
23:51:48,3.4901910000000003,96.07,35.53
23:51:48,3.4914709999999998,96.07,35.53
23:51:48,3.485069,96.07,35.53
23:51:48,3.483789,96.07,35.53
23:51:49,3.4799480000000003,95.97,35.55
23:51:49,3.474827,95.97,35.55
23:51:49,3.474827,95.97,35.55
23:51:49,3.473546,95.97,35.55
23:51:50,3.473546,95.88,35.55
23:51:50,3.470986,95.88,35.55
23:51:50,3.4697050000000003,95.88,35.55
23:51:50,3.467145,95.88,35.55
23:51:51,3.465864,95.82,35.55
23:51:51,3.4645839999999994,95.82,35.55
23:51:51,3.460743,95.82,35.55
23:51:51,3.460743,95.82,35.55
23:51:52,3.458182,95.77,35.53
23:51:52,3.4543410000000003,95.77,35.53
23:51:52,3.4569019999999995,95.77,35.53
23:51:52,3.455622,95.77,35.53
23:51:53,3.451781,95.73,35.55
23:51:53,3.4492199999999995,95.73,35.55
23:51:53,3.4466589999999995,95.73,35.55
23:51:53,3.442818,95.73,35.55
23:51:54,3.442818,95.73,35.57
23:51:54,3.4415379999999995,95.73,35.57
23:51:54,3.4389769999999995,95.73,35.57
23:51:54,3.437697,95.73,35.57
23:51:55,3.445379,95.75,35.55
23:51:55,3.4543410000000003,95.75,35.55
23:51:55,3.453061,95.75,35.55
23:51:55,3.4505,95.75,35.55
23:51:56,3.453061,95.78,35.55
23:51:56,3.4492199999999995,95.78,35.55
23:51:56,3.445379,95.78,35.55
23:51:56,3.442818,95.78,35.55
23:51:57,3.437697,95.82,35.55
23:51:57,3.4364169999999996,95.82,35.55
23:51:57,3.4364169999999996,95.82,35.55
23:51:57,3.453061,95.82,35.55
23:51:58,3.467145,95.85,35.55
23:51:58,3.4799480000000003,95.85,35.55
23:51:58,3.48635,95.85,35.55
23:51:58,3.485069,95.85,35.55
23:51:59,3.485069,95.88,35.57
23:51:59,3.485069,95.88,35.57
23:51:59,3.4773870000000002,95.88,35.57
23:51:59,3.468425,95.88,35.57
23:52:00,3.458182,95.95,35.55
23:52:00,3.451781,95.95,35.55
23:52:00,3.453061,95.95,35.55
23:52:00,3.4440989999999996,95.95,35.55
23:52:01,3.4364169999999996,96.02,35.57
23:52:01,3.437697,96.02,35.57
23:52:01,3.432576,96.02,35.57
23:52:01,3.4287349999999996,96.02,35.57
23:52:02,3.423614,96.08,35.57
23:52:02,3.427454,96.08,35.57
23:52:02,3.4184919999999996,96.08,35.57
23:52:02,3.4210529999999997,96.08,35.57
23:52:03,3.4287349999999996,96.13,35.57
23:52:03,3.442818,96.13,35.57
23:52:03,3.4569019999999995,96.13,35.57
23:52:03,3.468425,96.13,35.57
23:52:04,3.474827,96.18,35.59
23:52:04,3.474827,96.18,35.59
23:52:04,3.473546,96.18,35.59
23:52:04,3.463304,96.18,35.59
23:52:05,3.473546,96.2,35.59
23:52:05,3.5042739999999997,96.2,35.59
23:52:05,3.5478050000000003,96.2,35.59
23:52:05,3.588776,96.2,35.59
23:52:06,3.616943,96.18,35.59
23:52:06,3.634868,96.18,35.59
23:52:06,3.6335870000000003,96.18,35.59
23:52:06,3.624625,96.18,35.59
23:52:07,3.6067,96.15,35.59
23:52:07,3.5977379999999997,96.15,35.59
23:52:07,3.5836550000000003,96.15,35.59
23:52:07,3.5734120000000003,96.15,35.59
23:52:08,3.5631690000000003,96.08,35.57
23:52:08,3.5529269999999995,96.08,35.57
23:52:08,3.5426839999999995,96.08,35.57
23:52:08,3.536282,96.08,35.57
23:52:09,3.5324410000000004,96.02,35.61
23:52:09,3.5298809999999996,96.02,35.61
23:52:09,3.5221989999999996,96.02,35.61
23:52:09,3.518358,96.02,35.61
23:52:10,3.5170769999999996,95.95,35.59
23:52:10,3.5145169999999997,95.95,35.59
23:52:10,3.5093959999999997,95.95,35.59
23:52:10,3.5093959999999997,95.95,35.59
23:52:11,3.5196379999999996,95.88,35.59
23:52:11,3.5478050000000003,95.88,35.59
23:52:11,3.601579,95.88,35.59
23:52:11,3.6694370000000003,95.88,35.59
23:52:12,3.7193690000000004,95.82,35.61
23:52:12,3.746256,95.82,35.61
23:52:12,3.7424150000000003,95.82,35.61
23:52:12,3.736014,95.82,35.61
23:52:13,3.7142480000000004,95.75,35.61
23:52:13,3.695043,95.75,35.61
23:52:13,3.6783989999999998,95.75,35.61
23:52:13,3.6566330000000002,95.75,35.61
23:52:14,3.64511,95.68,35.61
23:52:14,3.632307,95.68,35.61
23:52:14,3.622064,95.68,35.61
23:52:14,3.611822,95.68,35.61
23:52:15,3.6067,95.6,35.61
23:52:15,3.596458,95.6,35.61
23:52:15,3.596458,95.6,35.61
23:52:15,3.591336,95.6,35.61
23:52:16,3.5836550000000003,95.48,35.59
23:52:16,3.5798129999999997,95.48,35.59
23:52:16,3.5823739999999997,95.48,35.59
23:52:16,3.586215,95.48,35.59
23:52:17,3.609261,95.37,35.61
23:52:17,3.6515120000000003,95.37,35.61
23:52:17,3.7040050000000004,95.37,35.61
23:52:17,3.736014,95.37,35.61
23:52:18,3.7475370000000003,95.25,35.61
23:52:18,3.748817,95.25,35.61
23:52:18,3.7372940000000003,95.25,35.61
23:52:18,3.710407,95.25,35.61
23:52:19,3.692482,95.12,35.61
23:52:19,3.6668760000000002,95.12,35.61
23:52:19,3.6463910000000004,95.12,35.61
23:52:19,3.629746,95.12,35.61
23:52:20,3.619504,95.0,35.59
23:52:20,3.614383,95.0,35.59
23:52:20,3.6156629999999996,95.0,35.59
23:52:20,3.6002989999999997,95.0,35.59
23:52:21,3.601579,94.87,35.63
23:52:21,3.5977379999999997,94.87,35.63
23:52:21,3.6182230000000004,94.87,35.63
23:52:21,3.660474,94.87,35.63
23:52:22,3.7091269999999996,94.75,35.63
23:52:22,3.730892,94.75,35.63
23:52:22,3.743696,94.75,35.63
23:52:22,3.7398550000000004,94.75,35.63
23:52:23,3.7398550000000004,94.62,35.63
23:52:23,3.7193690000000004,94.62,35.63
23:52:23,3.697604,94.62,35.63
23:52:23,3.6809589999999996,94.62,35.63
23:52:24,3.6591940000000003,94.48,35.63
23:52:24,3.639989,94.48,35.63
23:52:24,3.624625,94.48,35.63
23:52:24,3.6259059999999996,94.48,35.63
23:52:25,3.6131019999999996,94.35,35.63
23:52:25,3.6054199999999996,94.35,35.63
23:52:25,3.5951769999999996,94.35,35.63
23:52:25,3.5900559999999997,94.35,35.63
23:52:26,3.587496,94.22,35.61
23:52:26,3.5926169999999997,94.22,35.61
23:52:26,3.599019,94.22,35.61
23:52:26,3.609261,94.22,35.61
23:52:27,3.614383,94.07,35.63
23:52:27,3.616943,94.07,35.63
23:52:27,3.622064,94.07,35.63
23:52:27,3.614383,94.07,35.63
23:52:28,3.6079809999999997,93.92,35.61
23:52:28,3.6028589999999996,93.92,35.61
23:52:28,3.5926169999999997,93.92,35.61
23:52:28,3.588776,93.92,35.61
23:52:29,3.5823739999999997,93.77,35.63
23:52:29,3.5823739999999997,93.77,35.63
23:52:29,3.586215,93.77,35.63
23:52:29,3.616943,93.77,35.63
23:52:30,3.671997,93.63,35.63
23:52:30,3.7372940000000003,93.63,35.63
23:52:30,3.7769839999999997,93.63,35.63
23:52:30,3.8000300000000005,93.63,35.63
23:52:31,3.806432,93.5,35.63
23:52:31,3.7897879999999997,93.5,35.63
23:52:31,3.775704,93.5,35.63
23:52:31,3.7500970000000002,93.5,35.63
23:52:32,3.728332,93.37,35.63
23:52:32,3.710407,93.37,35.63
23:52:32,3.695043,93.37,35.63
23:52:32,3.6809589999999996,93.37,35.63
23:52:33,3.6681559999999998,93.25,35.65
23:52:33,3.6681559999999998,93.25,35.65
23:52:33,3.6694370000000003,93.25,35.65
23:52:33,3.673278,93.25,35.65
23:52:34,3.671997,93.13,35.63
23:52:34,3.673278,93.13,35.63
23:52:34,3.6758379999999997,93.13,35.63
23:52:34,3.6860809999999997,93.13,35.63
23:52:35,3.697604,93.03,35.63
23:52:35,3.7116870000000004,93.03,35.63
23:52:35,3.7219300000000004,93.03,35.63
23:52:35,3.736014,93.03,35.63
23:52:36,3.7321730000000004,92.93,35.65
23:52:36,3.728332,92.93,35.65
23:52:36,3.7168089999999996,92.93,35.65
23:52:36,3.743696,92.93,35.65
23:52:37,3.869168,92.85,35.65
23:52:37,4.03305,92.85,35.65
23:52:37,4.216486,92.85,35.65
23:52:37,4.31251,92.85,35.65
23:52:38,4.3509199999999995,92.8,35.65
23:52:38,4.336837,92.8,35.65
23:52:38,4.307389,92.8,35.65
23:52:38,4.235691,92.8,35.65
23:52:39,4.167833,92.77,35.65
23:52:39,4.098696,92.77,35.65
23:52:39,4.041081,92.77,35.65
23:52:39,3.994989,92.77,35.65
23:52:40,3.9527379999999996,92.73,35.65
23:52:40,3.924571,92.73,35.65
23:52:40,3.9053660000000003,92.73,35.65
23:52:40,3.8797589999999995,92.73,35.65
23:52:41,3.8618349999999997,92.72,35.65
23:52:41,3.852872,92.72,35.65
23:52:41,3.840069,92.72,35.65
23:52:41,3.829827,92.72,35.65
23:52:42,3.823425,92.72,35.68
23:52:42,3.818304,92.72,35.68
23:52:42,3.810622,92.72,35.68
23:52:42,3.806781,92.72,35.68
23:52:43,3.806781,92.72,35.66
23:52:43,3.800379,92.72,35.66
23:52:43,3.797818,92.72,35.66
23:52:43,3.7939769999999995,92.72,35.66
23:52:44,3.799099,92.72,35.65
23:52:44,3.797818,92.72,35.65
23:52:44,3.806781,92.72,35.65
23:52:44,3.8464709999999998,92.72,35.65
23:52:45,3.936094,92.73,35.66
23:52:45,4.030838,92.73,35.66
23:52:45,4.11534,92.73,35.66
23:52:45,4.171673999999999,92.73,35.66
23:52:46,4.183197,92.77,35.66
23:52:46,4.1639919999999995,92.77,35.66
23:52:46,4.128143,92.77,35.66
23:52:46,4.0807709999999995,92.77,35.66
23:52:47,4.03852,92.82,35.66
23:52:47,4.005231,92.82,35.66
23:52:47,3.969382,92.82,35.66
23:52:47,3.943776,92.82,35.66
23:52:48,3.924571,92.9,35.65
23:52:48,3.9117669999999998,92.9,35.65
23:52:48,3.898964,92.9,35.65
23:52:48,3.8874410000000004,92.9,35.65
23:52:49,3.878479,92.98,35.68
23:52:49,3.8746379999999996,92.98,35.68
23:52:49,3.8643949999999996,92.98,35.68
23:52:49,3.857994,92.98,35.68
23:52:50,3.855433,93.08,35.66
23:52:50,3.8515919999999997,93.08,35.66
23:52:50,3.8464709999999998,93.08,35.66
23:52:50,3.8439099999999997,93.08,35.66
23:52:51,3.837508,93.18,35.66
23:52:51,3.838789,93.18,35.66
23:52:51,3.8349480000000002,93.18,35.66
23:52:51,3.833668,93.18,35.66
23:52:52,3.8515919999999997,93.28,35.66
23:52:52,3.914328,93.28,35.66
23:52:52,4.003951,93.28,35.66
23:52:52,4.084612,93.28,35.66
23:52:53,4.119181,93.37,35.68
23:52:53,4.129424,93.37,35.68
23:52:53,4.119181,93.37,35.68
23:52:53,4.092294,93.37,35.68
23:52:54,4.059005,93.43,35.68
23:52:54,4.023156,93.43,35.68
23:52:54,3.9911480000000004,93.43,35.68
23:52:54,3.966822,93.43,35.68
23:52:55,3.9578599999999997,93.5,35.68
23:52:55,3.9552989999999997,93.5,35.68
23:52:55,3.9617,93.5,35.68
23:52:55,3.966822,93.5,35.68
23:52:56,3.9629809999999996,93.55,35.66
23:52:56,3.9629809999999996,93.55,35.66
23:52:56,3.9476169999999997,93.55,35.66
23:52:56,3.938654,93.55,35.66
23:52:57,3.924571,93.6,35.66
23:52:57,3.914328,93.6,35.66
23:52:57,3.9053660000000003,93.6,35.66
23:52:57,3.9053660000000003,93.6,35.66
23:52:58,3.904086,93.63,35.68
23:52:58,3.9104870000000003,93.63,35.68
23:52:58,3.9028050000000003,93.63,35.68
23:52:58,3.9028050000000003,93.63,35.68
23:52:59,3.8976839999999995,93.65,35.66
23:52:59,3.8925629999999996,93.65,35.66
23:52:59,3.888722,93.65,35.66
23:52:59,3.886161,93.65,35.66
23:53:00,3.888722,93.63,35.71
23:53:00,3.893843,93.63,35.71
23:53:00,3.901525,93.63,35.71
23:53:00,3.891282,93.63,35.71
23:53:01,3.891282,93.6,35.68
23:53:01,3.891282,93.6,35.68
23:53:01,3.8874410000000004,93.6,35.68
23:53:01,3.8836,93.6,35.68
23:53:02,3.8848809999999996,93.57,35.71
23:53:02,3.8797589999999995,93.57,35.71
23:53:02,3.878479,93.57,35.71
23:53:02,3.873358,93.57,35.71
23:53:03,3.8695169999999997,93.52,35.68
23:53:03,3.865676,93.52,35.68
23:53:03,3.865676,93.52,35.68
23:53:03,3.8643949999999996,93.52,35.68
23:53:04,3.863115,93.45,35.71
23:53:04,3.8618349999999997,93.45,35.71
23:53:04,3.860554,93.45,35.71
23:53:04,3.8567139999999998,93.45,35.71
23:53:05,3.8567139999999998,93.4,35.73
23:53:05,3.855433,93.4,35.73
23:53:05,3.850312,93.4,35.73
23:53:05,3.8464709999999998,93.4,35.73
23:53:06,3.84263,93.35,35.68
23:53:06,3.840069,93.35,35.68
23:53:06,3.837508,93.35,35.68
23:53:06,3.837508,93.35,35.68
23:53:07,3.8362279999999997,93.3,35.71
23:53:07,3.837508,93.3,35.71
23:53:07,3.838789,93.3,35.71
23:53:07,3.8451910000000002,93.3,35.71
23:53:08,3.84263,93.27,35.71
23:53:08,3.840069,93.27,35.71
23:53:08,3.8362279999999997,93.27,35.71
23:53:08,3.832387,93.27,35.71
23:53:09,3.831107,93.23,35.73
23:53:09,3.8259849999999997,93.23,35.73
23:53:09,3.822145,93.23,35.73
23:53:09,3.8272660000000003,93.23,35.73
23:53:10,3.819584,93.18,35.71
23:53:10,3.8170230000000003,93.18,35.71
23:53:10,3.818304,93.18,35.71
23:53:10,3.822145,93.18,35.71
23:53:11,3.828546,93.13,35.71
23:53:11,3.84135,93.13,35.71
23:53:11,3.8464709999999998,93.13,35.71
23:53:11,3.850312,93.13,35.71
23:53:12,3.8490309999999996,93.1,35.73
23:53:12,3.847751,93.1,35.73
23:53:12,3.84135,93.1,35.73
23:53:12,3.833668,93.1,35.73
23:53:13,3.8259849999999997,93.07,35.73
23:53:13,3.823425,93.07,35.73
23:53:13,3.820864,93.07,35.73
23:53:13,3.8170230000000003,93.07,35.73
23:53:14,3.813182,93.02,35.73
23:53:14,3.8170230000000003,93.02,35.73
23:53:14,3.814463,93.02,35.73
23:53:14,3.818304,93.02,35.73
23:53:15,3.8170230000000003,93.0,35.73
23:53:15,3.8170230000000003,93.0,35.73
23:53:15,3.813182,93.0,35.73
23:53:15,3.8093410000000003,93.0,35.73
23:53:16,3.808061,93.0,35.77
23:53:16,3.800379,93.0,35.77
23:53:16,3.800379,93.0,35.77
23:53:16,3.7939769999999995,93.0,35.77
23:53:17,3.7965379999999995,93.0,35.73
23:53:17,3.792697,93.0,35.73
23:53:17,3.7888559999999996,93.0,35.73
23:53:17,3.787576,93.0,35.73
23:53:18,3.783735,93.0,35.75
23:53:18,3.7862949999999995,93.0,35.75
23:53:18,3.7811739999999996,93.0,35.75
23:53:18,3.7811739999999996,93.0,35.75
23:53:19,3.7786129999999996,93.02,35.73
23:53:19,3.776053,93.02,35.73
23:53:19,3.774772,93.02,35.73
23:53:19,3.774772,93.02,35.73
23:53:20,3.7709309999999996,93.02,35.75
23:53:20,3.7734919999999996,93.02,35.75
23:53:20,3.7786129999999996,93.02,35.75
23:53:20,3.7888559999999996,93.02,35.75
23:53:21,3.815743,93.03,35.75
23:53:21,3.84135,93.03,35.75
23:53:21,3.860554,93.03,35.75
23:53:21,3.863115,93.03,35.75
23:53:22,3.863115,93.03,35.75
23:53:22,3.8592739999999996,93.03,35.75
23:53:22,3.8541529999999997,93.03,35.75
23:53:22,3.84263,93.03,35.75
23:53:23,3.8362279999999997,93.05,35.75
23:53:23,3.8247050000000002,93.05,35.75
23:53:23,3.823425,93.05,35.75
23:53:23,3.8170230000000003,93.05,35.75
23:53:24,3.813182,93.07,35.73
23:53:24,3.811902,93.07,35.73
23:53:24,3.806781,93.07,35.73
23:53:24,3.8016589999999995,93.07,35.73
23:53:25,3.797818,93.07,35.75
23:53:25,3.795258,93.07,35.75
23:53:25,3.790136,93.07,35.75
23:53:25,3.7862949999999995,93.07,35.75
23:53:26,3.7811739999999996,93.05,35.75
23:53:26,3.783735,93.05,35.75
23:53:26,3.7786129999999996,93.05,35.75
23:53:26,3.776053,93.05,35.75
23:53:27,3.776053,93.05,35.75
23:53:27,3.7709309999999996,93.05,35.75
23:53:27,3.769651,93.05,35.75
23:53:27,3.76709,93.05,35.75
23:53:28,3.76709,93.03,35.75
23:53:28,3.7606889999999997,93.03,35.75
23:53:28,3.7581279999999997,93.03,35.75
23:53:28,3.7581279999999997,93.03,35.75
23:53:29,3.7632489999999996,93.02,35.73
23:53:29,3.76453,93.02,35.73
23:53:29,3.7606889999999997,93.02,35.73
23:53:29,3.761969,93.02,35.73
23:53:30,3.7606889999999997,92.98,35.75
23:53:30,3.7555680000000002,92.98,35.75
23:53:30,3.7530069999999998,92.98,35.75
23:53:30,3.7478849999999997,92.98,35.75
23:53:31,3.745325,92.95,35.75
23:53:31,3.7478849999999997,92.95,35.75
23:53:31,3.738923,92.95,35.75
23:53:31,3.736362,92.95,35.75
23:53:32,3.736362,92.93,35.77
23:53:32,3.736362,92.93,35.77
23:53:32,3.738923,92.93,35.77
23:53:32,3.746605,92.93,35.77
23:53:33,3.754287,92.88,35.77
23:53:33,3.756848,92.88,35.77
23:53:33,3.7606889999999997,92.88,35.77
23:53:33,3.7555680000000002,92.88,35.77
23:53:34,3.751726,92.87,35.75
23:53:34,3.751726,92.87,35.75
23:53:34,3.745325,92.87,35.75
23:53:34,3.744045,92.87,35.75
23:53:35,3.735082,92.82,35.77
23:53:35,3.7312410000000003,92.82,35.77
23:53:35,3.7274,92.82,35.77
23:53:35,3.723559,92.82,35.77
23:53:36,3.719718,92.77,35.75
23:53:36,3.718438,92.77,35.75
23:53:36,3.720999,92.77,35.75
23:53:36,3.714597,92.77,35.75
23:53:37,3.712036,92.72,35.77
23:53:37,3.717158,92.72,35.77
23:53:37,3.713317,92.72,35.77
23:53:37,3.719718,92.72,35.77
23:53:38,3.729961,92.65,35.77
23:53:38,3.733802,92.65,35.77
23:53:38,3.7312410000000003,92.65,35.77
23:53:38,3.728681,92.65,35.77
23:53:39,3.7274,92.58,35.75
23:53:39,3.724839,92.58,35.75
23:53:39,3.715877,92.58,35.75
23:53:39,3.713317,92.58,35.75
23:53:40,3.706915,92.53,35.77
23:53:40,3.706915,92.53,35.77
23:53:40,3.705635,92.53,35.77
23:53:40,3.696672,92.53,35.77
23:53:41,3.692831,92.48,35.75
23:53:41,3.68771,92.48,35.75
23:53:41,3.683869,92.48,35.75
23:53:41,3.691551,92.48,35.75
23:53:42,3.713317,92.43,35.75
23:53:42,3.712036,92.43,35.75
23:53:42,3.68771,92.43,35.75
23:53:42,3.673626,92.43,35.75
23:53:43,3.668505,92.38,35.77
23:53:43,3.667225,92.38,35.77
23:53:43,3.667225,92.38,35.77
23:53:43,3.668505,92.38,35.77
23:53:44,3.669785,92.33,35.75
23:53:44,3.668505,92.33,35.75
23:53:44,3.671066,92.33,35.75
23:53:44,3.671066,92.33,35.75
23:53:45,3.664664,92.3,35.79
23:53:45,3.667225,92.3,35.79
23:53:45,3.694112,92.3,35.79
23:53:45,3.691551,92.3,35.79
23:53:46,3.683869,92.25,35.77
23:53:46,3.68899,92.25,35.77
23:53:46,3.701794,92.25,35.77
23:53:46,3.712036,92.25,35.77
23:53:47,3.718438,92.2,35.75
23:53:47,3.719718,92.2,35.75
23:53:47,3.712036,92.2,35.75
23:53:47,3.706915,92.2,35.75
23:53:48,3.701794,92.13,35.79
23:53:48,3.691551,92.13,35.79
23:53:48,3.68771,92.13,35.79
23:53:48,3.678748,92.13,35.79
23:53:49,3.676187,92.07,35.79
23:53:49,3.669785,92.07,35.79
23:53:49,3.667225,92.07,35.79
23:53:49,3.660823,92.07,35.79
23:53:50,3.656982,91.97,35.77
23:53:50,3.655702,91.97,35.77
23:53:50,3.6493,91.97,35.77
23:53:50,3.642899,91.97,35.77
23:53:51,3.645459,91.85,35.77
23:53:51,3.6441790000000003,91.85,35.77
23:53:51,3.640338,91.85,35.77
23:53:51,3.637777,91.85,35.77
23:53:52,3.6364970000000003,91.72,35.77
23:53:52,3.6288150000000003,91.72,35.77
23:53:52,3.624974,91.72,35.77
23:53:52,3.6288150000000003,91.72,35.77
23:53:53,3.619853,91.6,35.79
23:53:53,3.6211330000000004,91.6,35.79
23:53:53,3.618572,91.6,35.79
23:53:53,3.614731,91.6,35.79
23:53:54,3.617292,91.47,35.79
23:53:54,3.6211330000000004,91.47,35.79
23:53:54,3.6288150000000003,91.47,35.79
23:53:54,3.6364970000000003,91.47,35.79
23:53:55,3.6364970000000003,91.32,35.79
23:53:55,3.637777,91.32,35.79
23:53:55,3.6313760000000004,91.32,35.79
23:53:55,3.6352160000000002,91.32,35.79
23:53:56,3.6339360000000003,91.18,35.79
23:53:56,3.632656,91.18,35.79
23:53:56,3.624974,91.18,35.79
23:53:56,3.622413,91.18,35.79
23:53:57,3.619853,91.05,35.79
23:53:57,3.619853,91.05,35.79
23:53:57,3.6211330000000004,91.05,35.79
23:53:57,3.6211330000000004,91.05,35.79
23:53:58,3.6160120000000004,90.95,35.79
23:53:58,3.618572,90.95,35.79
23:53:58,3.61089,90.95,35.79
23:53:58,3.61089,90.95,35.79
23:53:59,3.6083300000000005,90.87,35.81
23:53:59,3.603208,90.87,35.81
23:53:59,3.6006480000000005,90.87,35.81
23:53:59,3.5980870000000005,90.87,35.81
23:54:00,3.601928,90.78,35.79
23:54:00,3.595526,90.78,35.79
23:54:00,3.5980870000000005,90.78,35.79
23:54:00,3.586564,90.78,35.79
23:54:01,3.586564,90.72,35.77
23:54:01,3.594246,90.72,35.77
23:54:01,3.60961,90.72,35.77
23:54:01,3.627535,90.72,35.77
23:54:02,3.6416180000000002,90.63,35.81
23:54:02,3.6518610000000002,90.63,35.81
23:54:02,3.64802,90.63,35.81
23:54:02,3.6493,90.63,35.81
23:54:03,3.642899,90.57,35.81
23:54:03,3.653141,90.57,35.81
23:54:03,3.678748,90.57,35.81
23:54:03,3.738923,90.57,35.81
23:54:04,3.8247050000000002,90.52,35.83
23:54:04,3.8836,90.52,35.83
23:54:04,3.9181690000000002,90.52,35.83
23:54:04,3.936094,90.52,35.83
23:54:05,3.933533,90.47,35.81
23:54:05,3.914328,90.47,35.81
23:54:05,3.8836,90.47,35.81
23:54:05,3.8541529999999997,90.47,35.81
23:54:06,3.8259849999999997,90.43,35.81
23:54:06,3.8093410000000003,90.43,35.81
23:54:06,3.7939769999999995,90.43,35.81
23:54:06,3.779894,90.43,35.81
23:54:07,3.810622,90.42,35.81
23:54:07,3.896404,90.42,35.81
23:54:07,4.028277,90.42,35.81
23:54:07,4.15375,90.42,35.81
23:54:08,4.235691,90.4,35.81
23:54:08,4.26898,90.4,35.81
23:54:08,4.265137999999999,90.4,35.81
23:54:08,4.228008999999999,90.4,35.81
23:54:09,4.1691139999999995,90.42,35.81
23:54:09,4.135825,90.42,35.81
23:54:09,4.126863,90.42,35.81
23:54:09,4.126863,90.42,35.81
23:54:10,4.126863,90.47,35.81
23:54:10,4.1179,90.47,35.81
23:54:10,4.096134999999999,90.47,35.81
23:54:10,4.0679680000000005,90.47,35.81
23:54:11,4.032118,90.52,35.81
23:54:11,4.006512,90.52,35.81
23:54:11,3.9732230000000004,90.52,35.81
23:54:11,3.948897,90.52,35.81
23:54:12,3.9322529999999998,90.58,35.79
23:54:12,3.91945,90.58,35.79
23:54:12,3.9053660000000003,90.58,35.79
23:54:12,3.898964,90.58,35.79
23:54:13,3.8951230000000003,90.65,35.81
23:54:13,3.9053660000000003,90.65,35.81
23:54:13,3.9207300000000003,90.65,35.81
23:54:13,3.9373739999999997,90.65,35.81
23:54:14,3.942496,90.73,35.83
23:54:14,3.941215,90.73,35.83
23:54:14,3.9373739999999997,90.73,35.83
23:54:14,3.9284120000000002,90.73,35.83
23:54:15,3.914328,90.8,35.79
23:54:15,3.9028050000000003,90.8,35.79
23:54:15,3.893843,90.8,35.79
23:54:15,3.886161,90.8,35.79
23:54:16,3.8823199999999995,90.87,35.81
23:54:16,3.8771989999999996,90.87,35.81
23:54:16,3.8771989999999996,90.87,35.81
23:54:16,3.875918,90.87,35.81
23:54:17,3.88104,90.92,35.79
23:54:17,3.8900019999999995,90.92,35.79
23:54:17,3.888722,90.92,35.79
23:54:17,3.888722,90.92,35.79
23:54:18,3.8823199999999995,90.97,35.81
23:54:18,3.8823199999999995,90.97,35.81
23:54:18,3.8720769999999995,90.97,35.81
23:54:18,3.8771989999999996,90.97,35.81
23:54:19,3.878479,91.02,35.81
23:54:19,3.888722,91.02,35.81
23:54:19,3.8925629999999996,91.02,35.81
23:54:19,3.893843,91.02,35.81
23:54:20,3.8925629999999996,91.07,35.83
23:54:20,3.901525,91.07,35.83
23:54:20,3.9181690000000002,91.07,35.83
23:54:20,3.9296919999999997,91.07,35.83
23:54:21,3.936094,91.13,35.81
23:54:21,3.938654,91.13,35.81
23:54:21,3.9309730000000003,91.13,35.81
23:54:21,3.925851,91.13,35.81
23:54:22,3.966822,91.23,35.81
23:54:22,4.0654069999999995,91.23,35.81
23:54:22,4.187037999999999,91.23,35.81
23:54:22,4.302268,91.23,35.81
23:54:23,4.357322,91.35,35.83
23:54:23,4.358603,91.35,35.83
23:54:23,4.327875,91.35,35.83
23:54:23,4.27154,91.35,35.83
23:54:24,4.210083999999999,91.52,35.83
23:54:24,4.157591,91.52,35.83
23:54:24,4.125583,91.52,35.83
23:54:24,4.112779,91.52,35.83
23:54:25,4.107658,91.72,35.83
23:54:25,4.099976,91.72,35.83
23:54:25,4.082051,91.72,35.83
23:54:25,4.0679680000000005,91.72,35.83
23:54:26,4.048763,91.97,35.83
23:54:26,4.030838,91.97,35.83
23:54:26,4.014194,91.97,35.83
23:54:26,3.9988300000000003,91.97,35.83
23:54:27,3.987307,92.22,35.84
23:54:27,3.979625,92.22,35.84
23:54:27,3.974504,92.22,35.84
23:54:27,3.9681019999999996,92.22,35.84
23:54:28,3.9629809999999996,92.48,35.83
23:54:28,3.9617,92.48,35.83
23:54:28,3.9604199999999996,92.48,35.83
23:54:28,3.9552989999999997,92.48,35.83
23:54:29,3.964261,92.73,35.83
23:54:29,4.007792,92.73,35.83
23:54:29,4.0782099999999994,92.73,35.83
23:54:29,4.160151,92.73,35.83
23:54:30,4.201122,92.97,35.83
23:54:30,4.221607,92.97,35.83
23:54:30,4.207523,92.97,35.83
23:54:30,4.176794999999999,92.97,35.83
23:54:31,4.1486279999999995,93.18,35.83
23:54:31,4.119181,93.18,35.83
23:54:31,4.085891999999999,93.18,35.83
23:54:31,4.0654069999999995,93.18,35.83
23:54:32,4.051323,93.37,35.84
23:54:32,4.03852,93.37,35.84
23:54:32,4.028277,93.37,35.84
23:54:32,4.015474,93.37,35.84
23:54:33,4.014194,93.55,35.83
23:54:33,4.005231,93.55,35.83
23:54:33,3.99755,93.55,35.83
23:54:33,3.989868,93.55,35.83
23:54:34,3.987307,93.7,35.83
23:54:34,3.9834660000000004,93.7,35.83
23:54:34,3.979625,93.7,35.83
23:54:34,3.977064,93.7,35.83
23:54:35,3.9706629999999996,93.85,35.84
23:54:35,3.9681019999999996,93.85,35.84
23:54:35,3.9629809999999996,93.85,35.84
23:54:35,3.9604199999999996,93.85,35.84
23:54:36,3.956579,93.98,35.83
23:54:36,3.9552989999999997,93.98,35.83
23:54:36,3.954018,93.98,35.83
23:54:36,3.951458,93.98,35.83
23:54:37,3.951458,94.12,35.83
23:54:37,3.966822,94.12,35.83
23:54:37,3.9783449999999996,94.12,35.83
23:54:37,3.9911480000000004,94.12,35.83
23:54:38,4.00011,94.22,35.84
23:54:38,4.005231,94.22,35.84
23:54:38,3.9962690000000003,94.22,35.84
23:54:38,3.9809050000000004,94.22,35.84
23:54:39,3.971943,94.3,35.84
23:54:39,3.9655410000000004,94.3,35.84
23:54:39,3.971943,94.3,35.84
23:54:39,3.9834660000000004,94.3,35.84
23:54:40,4.00139,94.37,35.83
23:54:40,4.014194,94.37,35.83
23:54:40,4.021876,94.37,35.83
23:54:40,4.015474,94.37,35.83
23:54:41,4.012914,94.42,35.83
23:54:41,4.003951,94.42,35.83
23:54:41,3.9962690000000003,94.42,35.83
23:54:41,3.987307,94.42,35.83
23:54:42,3.971943,94.47,35.84
23:54:42,3.969382,94.47,35.84
23:54:42,3.9629809999999996,94.47,35.84
23:54:42,3.9578599999999997,94.47,35.84
23:54:43,3.9578599999999997,94.5,35.83
23:54:43,3.954018,94.5,35.83
23:54:43,3.948897,94.5,35.83
23:54:43,3.9476169999999997,94.5,35.83
23:54:44,3.9450559999999997,94.53,35.83
23:54:44,3.9399349999999997,94.53,35.83
23:54:44,3.9373739999999997,94.53,35.83
23:54:44,3.9348129999999997,94.53,35.83
23:54:45,3.9348129999999997,94.55,35.83
23:54:45,3.936094,94.55,35.83
23:54:45,3.9271309999999997,94.55,35.83
23:54:45,3.9309730000000003,94.55,35.83
23:54:46,3.9296919999999997,94.55,35.84
23:54:46,3.925851,94.55,35.84
23:54:46,3.924571,94.55,35.84
23:54:46,3.924571,94.55,35.84
23:54:47,3.9207300000000003,94.53,35.83
23:54:47,3.9220099999999998,94.53,35.83
23:54:47,3.9181690000000002,94.53,35.83
23:54:47,3.9130480000000003,94.53,35.83
23:54:48,3.914328,94.48,35.84
23:54:48,3.92329,94.48,35.84
23:54:48,3.9732230000000004,94.48,35.84
23:54:48,4.03852,94.48,35.84
23:54:49,4.11534,94.45,35.83
23:54:49,4.1691139999999995,94.45,35.83
23:54:49,4.197280999999999,94.45,35.83
23:54:49,4.207523,94.45,35.83
23:54:50,4.196001,94.42,35.83
23:54:50,4.172955,94.42,35.83
23:54:50,4.140946,94.42,35.83
23:54:50,4.120461,94.42,35.83
23:54:51,4.102537,94.4,35.83
23:54:51,4.084612,94.4,35.83
23:54:51,4.071809,94.4,35.83
23:54:51,4.064126,94.4,35.83
23:54:52,4.056445,94.38,35.84
23:54:52,4.053884,94.38,35.84
23:54:52,4.051323,94.38,35.84
23:54:52,4.039801000000001,94.38,35.84
23:54:53,4.035959,94.37,35.83
23:54:53,4.029558,94.37,35.83
23:54:53,4.035959,94.37,35.83
23:54:53,4.0782099999999994,94.37,35.83
23:54:54,4.15375,94.35,35.84
23:54:54,4.236971,94.35,35.84
23:54:54,4.285623999999999,94.35,35.84
23:54:54,4.308669999999999,94.35,35.84
23:54:55,4.316351,94.33,35.84
23:54:55,4.295866,94.33,35.84
23:54:55,4.276661,94.33,35.84
23:54:55,4.248494,94.33,35.84
23:54:56,4.222887999999999,94.32,35.84
23:54:56,4.194719999999999,94.32,35.84
23:54:56,4.175515,94.32,35.84
23:54:56,4.162712,94.32,35.84
23:54:57,4.143507,94.3,35.87
23:54:57,4.134545,94.3,35.87
23:54:57,4.1179,94.3,35.87
23:54:57,4.112779,94.3,35.87
23:54:58,4.102537,94.27,35.84
23:54:58,4.091012999999999,94.27,35.84
23:54:58,4.085891999999999,94.27,35.84
23:54:58,4.099976,94.27,35.84
23:54:59,4.146068,94.25,35.84
23:54:59,4.243373,94.25,35.84
23:54:59,4.352201,94.25,35.84
23:54:59,4.418778,94.25,35.84
23:55:00,4.448225,94.28,35.84
23:55:00,4.478468,94.28,35.84
23:55:00,4.455422,94.28,35.84
23:55:00,4.405489,94.28,35.84
23:55:01,4.367079,94.3,35.83
23:55:01,4.36836,94.3,35.83
23:55:01,4.404209,94.3,35.83
23:55:01,4.443899,94.3,35.83
23:55:02,4.468225,94.32,35.84
23:55:02,4.466945,94.32,35.84
23:55:02,4.454142,94.32,35.84
23:55:02,4.427255000000001,94.32,35.84
23:55:03,4.382443,94.3,35.83
23:55:03,4.3440330000000005,94.3,35.83
23:55:03,4.315866000000001,94.3,35.83
23:55:03,4.297942,94.3,35.83
23:55:04,4.282578,94.28,35.87
23:55:04,4.277456,94.28,35.87
23:55:04,4.2582510000000005,94.28,35.87
23:55:04,4.25441,94.28,35.87
23:55:05,4.240327,94.25,35.87
23:55:05,4.232645,94.25,35.87
23:55:05,4.222402,94.25,35.87
23:55:05,4.219841000000001,94.25,35.87
23:55:06,4.2684940000000005,94.1,35.84
23:55:06,4.388845,94.1,35.84
23:55:06,4.509196,94.1,35.84
23:55:06,4.594978,94.1,35.84
23:55:07,4.630827,93.95,35.87
23:55:07,4.6269860000000005,93.95,35.87
23:55:07,4.596258,93.95,35.87
23:55:07,4.542484,93.95,35.87
23:55:08,4.48871,93.83,35.87
23:55:08,4.4374970000000005,93.83,35.87
23:55:08,4.383724,93.83,35.87
23:55:08,4.349154,93.83,35.87
23:55:09,4.312025,93.72,35.84
23:55:09,4.288979,93.72,35.84
23:55:09,4.264653,93.72,35.84
23:55:09,4.241607,93.72,35.84
23:55:10,4.231364,93.6,35.87
23:55:10,4.223682,93.6,35.87
23:55:10,4.241607,93.6,35.87
23:55:10,4.2608120000000005,93.6,35.87
23:55:11,4.288979,93.48,35.87
23:55:11,4.300502,93.48,35.87
23:55:11,4.304343,93.48,35.87
23:55:11,4.295381,93.48,35.87
23:55:12,4.281297,93.37,35.87
23:55:12,4.259531,93.37,35.87
23:55:12,4.2454480000000006,93.37,35.87
23:55:12,4.227523000000001,93.37,35.87
23:55:13,4.21216,93.25,35.87
23:55:13,4.209599,93.25,35.87
23:55:13,4.195515,93.25,35.87
23:55:13,4.183992,93.25,35.87
23:55:14,4.169909,93.15,35.87
23:55:14,4.1673480000000005,93.15,35.87
23:55:14,4.1596660000000005,93.15,35.87
23:55:14,4.1596660000000005,93.15,35.87
23:55:15,4.154545,93.07,35.87
23:55:15,4.154545,93.07,35.87
23:55:15,4.150704,93.07,35.87
23:55:15,4.148143,93.07,35.87
23:55:16,4.146863,92.98,35.89
23:55:16,4.140461,92.98,35.89
23:55:16,4.140461,92.98,35.89
23:55:16,4.123817,92.98,35.89
23:55:17,4.117415,92.93,35.87
23:55:17,4.116135,92.93,35.87
23:55:17,4.118695,92.93,35.87
23:55:17,4.099491,92.93,35.87
23:55:18,4.085407,92.88,35.87
23:55:18,4.079005,92.88,35.87
23:55:18,4.075164,92.88,35.87
23:55:18,4.076445,92.88,35.87
23:55:19,4.084126,92.83,35.87
23:55:19,4.082846,92.83,35.87
23:55:19,4.070043,92.83,35.87
23:55:19,4.05852,92.83,35.87
23:55:20,4.046997,92.8,35.87
23:55:20,4.040596,92.8,35.87
23:55:20,4.044436,92.8,35.87
23:55:20,4.039315,92.8,35.87
23:55:21,4.049558,92.77,35.84
23:55:21,4.049558,92.77,35.84
23:55:21,4.048277,92.77,35.84
23:55:21,4.049558,92.77,35.84
23:55:22,4.049558,92.72,35.87
23:55:22,4.053399,92.72,35.87
23:55:22,4.053399,92.72,35.87
23:55:22,4.049558,92.72,35.87
23:55:23,4.048277,92.65,35.87
23:55:23,4.049558,92.65,35.87
23:55:23,4.048277,92.65,35.87
23:55:23,4.048277,92.65,35.87
23:55:24,4.049558,92.55,35.84
23:55:24,4.048277,92.55,35.84
23:55:24,4.044436,92.55,35.84
23:55:24,4.045717,92.55,35.84
23:55:25,4.043156,92.43,35.87
23:55:25,4.043156,92.43,35.87
23:55:25,4.038035,92.43,35.87
23:55:25,4.036755,92.43,35.87
23:55:26,4.035474,92.28,35.84
23:55:26,4.032913,92.28,35.84
23:55:26,4.030353,92.28,35.84
23:55:26,4.027792,92.28,35.84
23:55:27,4.027792,92.12,35.84
23:55:27,4.026512,92.12,35.84
23:55:27,4.025231,92.12,35.84
23:55:27,4.01883,92.12,35.84
23:55:28,4.023951,91.95,35.87
23:55:28,4.016269,91.95,35.87
23:55:28,4.016269,91.95,35.87
23:55:28,4.01755,91.95,35.87
23:55:29,4.01755,91.8,35.89
23:55:29,4.01755,91.8,35.89
23:55:29,4.01755,91.8,35.89
23:55:29,4.016269,91.8,35.89
23:55:30,4.014989,91.67,35.84
23:55:30,4.012428,91.67,35.84
23:55:30,4.011148,91.67,35.84
23:55:30,4.009868,91.67,35.84
23:55:31,4.004746,91.55,35.84
23:55:31,4.007307,91.55,35.84
23:55:31,4.002185,91.55,35.84
23:55:31,4.000905,91.55,35.84
23:55:32,3.9983440000000003,91.45,35.87
23:55:32,3.997064,91.45,35.87
23:55:32,3.999625,91.45,35.87
23:55:32,4.000905,91.45,35.87
23:55:33,4.000905,91.37,35.87
23:55:33,3.9983440000000003,91.37,35.87
23:55:33,4.004746,91.37,35.87
23:55:33,3.999625,91.37,35.87
23:55:34,3.997064,91.28,35.89
23:55:34,3.9932230000000004,91.28,35.89
23:55:34,3.991943,91.28,35.89
23:55:34,3.986822,91.28,35.89
23:55:35,3.986822,91.22,35.87
23:55:35,3.984261,91.22,35.87
23:55:35,3.989382,91.22,35.87
23:55:35,3.986822,91.22,35.87
23:55:36,3.984261,91.17,35.87
23:55:36,3.9817,91.17,35.87
23:55:36,3.97914,91.17,35.87
23:55:36,3.9778589999999996,91.17,35.87
23:55:37,3.9752989999999997,91.1,35.84
23:55:37,3.974018,91.1,35.84
23:55:37,3.971458,91.1,35.84
23:55:37,3.9676169999999997,91.1,35.84
23:55:38,3.966336,91.05,35.87
23:55:38,3.961215,91.05,35.87
23:55:38,3.9599349999999998,91.05,35.87
23:55:38,3.953533,91.05,35.87
23:55:39,3.952253,91.02,35.84
23:55:39,3.9496919999999998,91.02,35.84
23:55:39,3.94329,91.02,35.84
23:55:39,3.94201,91.02,35.84
23:55:40,3.944571,90.98,35.89
23:55:40,3.94329,90.98,35.89
23:55:40,3.9471309999999997,90.98,35.89
23:55:40,3.9407300000000003,90.98,35.89
23:55:41,3.9450559999999997,90.97,35.84
23:55:41,3.938654,90.97,35.84
23:55:41,3.936094,90.97,35.84
23:55:41,3.936094,90.97,35.84
23:55:42,3.933533,90.93,35.87
23:55:42,3.938654,90.93,35.87
23:55:42,3.938654,90.93,35.87
23:55:42,3.9373739999999997,90.93,35.87
23:55:43,3.9399349999999997,90.92,35.83
23:55:43,3.938654,90.92,35.83
23:55:43,3.9373739999999997,90.92,35.83
23:55:43,3.9348129999999997,90.92,35.83
23:55:44,3.9322529999999998,90.9,35.87
23:55:44,3.9296919999999997,90.9,35.87
23:55:44,3.9296919999999997,90.9,35.87
23:55:44,3.92329,90.9,35.87
23:55:45,3.91945,90.88,35.87
23:55:45,3.9181690000000002,90.88,35.87
23:55:45,3.909207,90.88,35.87
23:55:45,3.914328,90.88,35.87
23:55:46,3.9053660000000003,90.9,35.87
23:55:46,3.904086,90.9,35.87
23:55:46,3.898964,90.9,35.87
23:55:46,3.901525,90.9,35.87
23:55:47,3.898964,90.93,35.84
23:55:47,3.8976839999999995,90.93,35.84
23:55:47,3.898964,90.93,35.84
23:55:47,3.901525,90.93,35.84
23:55:48,3.904086,91.0,35.87
23:55:48,3.9079269999999995,91.0,35.87
23:55:48,3.901525,91.0,35.87
23:55:48,3.8951230000000003,91.0,35.87
23:55:49,3.893843,91.07,35.87
23:55:49,3.8874410000000004,91.07,35.87
23:55:49,3.8848809999999996,91.07,35.87
23:55:49,3.8823199999999995,91.07,35.87
23:55:50,3.8797589999999995,91.17,35.84
23:55:50,3.8771989999999996,91.17,35.84
23:55:50,3.875918,91.17,35.84
23:55:50,3.875918,91.17,35.84
23:55:51,3.878479,91.27,35.84
23:55:51,3.8797589999999995,91.27,35.84
23:55:51,3.886161,91.27,35.84
23:55:51,3.909207,91.27,35.84
23:55:52,3.951458,91.37,35.84
23:55:52,4.014194,91.37,35.84
23:55:52,4.0705290000000005,91.37,35.84
23:55:52,4.108937999999999,91.37,35.84
23:55:53,4.123022,91.47,35.83
23:55:53,4.129424,91.47,35.83
23:55:53,4.114058999999999,91.47,35.83
23:55:53,4.096134999999999,91.47,35.83
23:55:54,4.0730889999999995,91.57,35.84
23:55:54,4.056445,91.57,35.84
23:55:54,4.034679,91.57,35.84
23:55:54,4.018035,91.57,35.84
23:55:55,4.006512,91.68,35.84
23:55:55,4.00139,91.68,35.84
23:55:55,3.9988300000000003,91.68,35.84
23:55:55,4.005231,91.68,35.84
23:55:56,4.009073,91.77,35.84
23:55:56,4.019315,91.77,35.84
23:55:56,4.018035,91.77,35.84
23:55:56,4.015474,91.77,35.84
23:55:57,4.009073,91.85,35.87
23:55:57,3.99755,91.85,35.87
23:55:57,3.984746,91.85,35.87
23:55:57,3.9757839999999995,91.85,35.87
23:55:58,3.966822,91.92,35.89
23:55:58,3.9629809999999996,91.92,35.89
23:55:58,3.9527379999999996,91.92,35.89
23:55:58,3.9501769999999996,91.92,35.89
23:55:59,3.943776,91.97,35.87
23:55:59,3.941215,91.97,35.87
23:55:59,3.933533,91.97,35.87
23:55:59,3.9309730000000003,91.97,35.87
23:56:00,3.9348129999999997,91.98,35.84
23:56:00,3.9284120000000002,91.98,35.84
23:56:00,3.9296919999999997,91.98,35.84
23:56:00,3.9181690000000002,91.98,35.84
23:56:01,3.9207300000000003,92.02,35.84
23:56:01,3.92329,92.02,35.84
23:56:01,3.9181690000000002,92.02,35.84
23:56:01,3.9207300000000003,92.02,35.84
23:56:02,3.92329,92.07,35.84
23:56:02,3.924571,92.07,35.84
23:56:02,3.9207300000000003,92.07,35.84
23:56:02,3.92329,92.07,35.84
23:56:03,3.948897,92.17,35.84
23:56:03,3.992428,92.17,35.84
23:56:03,4.043642,92.17,35.84
23:56:03,4.099976,92.17,35.84
23:56:04,4.123022,92.27,35.84
23:56:04,4.120461,92.27,35.84
23:56:04,4.102537,92.27,35.84
23:56:04,4.087173,92.27,35.84
23:56:05,4.0628459999999995,92.4,35.83
23:56:05,4.047482,92.4,35.83
23:56:05,4.042361,92.4,35.83
23:56:05,4.03724,92.4,35.83
23:56:06,4.034679,92.67,35.84
23:56:06,4.025717,92.67,35.84
23:56:06,4.018035,92.67,35.84
23:56:06,4.006512,92.67,35.84
23:56:07,3.9988300000000003,92.93,35.84
23:56:07,3.984746,92.93,35.84
23:56:07,3.982186,92.93,35.84
23:56:07,3.994989,92.93,35.84
23:56:08,4.014194,93.17,35.84
23:56:08,4.028277,93.17,35.84
23:56:08,4.033399,93.17,35.84
23:56:08,4.029558,93.17,35.84
23:56:09,4.005231,93.38,35.87
23:56:09,3.982186,93.38,35.87
23:56:09,3.971943,93.38,35.87
23:56:09,3.971943,93.38,35.87
23:56:10,3.9552989999999997,93.58,35.87
23:56:10,3.9399349999999997,93.58,35.87
23:56:10,3.9322529999999998,93.58,35.87
23:56:10,3.92329,93.58,35.87
23:56:11,3.9207300000000003,93.78,35.84
23:56:11,3.9117669999999998,93.78,35.84
23:56:11,3.906646,93.78,35.84
23:56:11,3.891282,93.78,35.84
23:56:12,3.8900019999999995,93.95,35.84
23:56:12,3.886161,93.95,35.84
23:56:12,3.8797589999999995,93.95,35.84
23:56:12,3.8771989999999996,93.95,35.84
23:56:13,3.8720769999999995,94.1,35.84
23:56:13,3.863115,94.1,35.84
23:56:13,3.8592739999999996,94.1,35.84
23:56:13,3.857994,94.1,35.84
23:56:14,3.850312,94.22,35.84
23:56:14,3.8490309999999996,94.22,35.84
23:56:14,3.8451910000000002,94.22,35.84
23:56:14,3.8464709999999998,94.22,35.84
23:56:15,3.840069,94.33,35.87
23:56:15,3.84263,94.33,35.87
23:56:15,3.829827,94.33,35.87
23:56:15,3.8247050000000002,94.33,35.87
23:56:16,3.818304,94.45,35.84
23:56:16,3.820864,94.45,35.84
23:56:16,3.811902,94.45,35.84
23:56:16,3.8016589999999995,94.45,35.84
23:56:17,3.792697,94.55,35.84
23:56:17,3.787576,94.55,35.84
23:56:17,3.791417,94.55,35.84
23:56:17,3.795258,94.55,35.84
23:56:18,3.806781,94.65,35.83
23:56:18,3.810622,94.65,35.83
23:56:18,3.814463,94.65,35.83
23:56:18,3.814463,94.65,35.83
23:56:19,3.818304,94.75,35.87
23:56:19,3.8272660000000003,94.75,35.87
23:56:19,3.8259849999999997,94.75,35.87
23:56:19,3.832387,94.75,35.87
23:56:20,3.8349480000000002,94.83,35.83
23:56:20,3.829827,94.83,35.83
23:56:20,3.832387,94.83,35.83
23:56:20,3.8259849999999997,94.83,35.83
23:56:21,3.815743,94.9,35.83
23:56:21,3.810622,94.9,35.83
23:56:21,3.8042199999999995,94.9,35.83
23:56:21,3.8016589999999995,94.9,35.83
23:56:22,3.7939769999999995,94.95,35.83
23:56:22,3.7888559999999996,94.95,35.83
23:56:22,3.7811739999999996,94.95,35.83
23:56:22,3.7683709999999997,94.95,35.83
23:56:23,3.772212,94.98,35.83
23:56:23,3.76709,94.98,35.83
23:56:23,3.772212,94.98,35.83
23:56:23,3.776053,94.98,35.83
23:56:24,3.772212,95.0,35.83
23:56:24,3.76709,95.0,35.83
23:56:24,3.76453,95.0,35.83
23:56:24,3.7606889999999997,95.0,35.83
23:56:25,3.7632489999999996,95.0,35.84
23:56:25,3.751726,95.0,35.84
23:56:25,3.751726,95.0,35.84
23:56:25,3.7504459999999997,95.0,35.84
23:56:26,3.7478849999999997,94.98,35.84
23:56:26,3.751726,94.98,35.84
23:56:26,3.777333,94.98,35.84
23:56:26,3.777333,94.98,35.84
23:56:27,3.776053,94.97,35.83
23:56:27,3.7786129999999996,94.97,35.83
23:56:27,3.7555680000000002,94.97,35.83
23:56:27,3.745325,94.97,35.83
23:56:28,3.735082,94.93,35.84
23:56:28,3.736362,94.93,35.84
23:56:28,3.735082,94.93,35.84
23:56:28,3.728681,94.93,35.84
23:56:29,3.724839,94.88,35.83
23:56:29,3.722279,94.88,35.83
23:56:29,3.723559,94.88,35.83
23:56:29,3.719718,94.88,35.83
23:56:30,3.718438,94.83,35.84
23:56:30,3.719718,94.83,35.84
23:56:30,3.723559,94.83,35.84
23:56:30,3.717158,94.83,35.84
23:56:31,3.712036,94.78,35.83
23:56:31,3.710756,94.78,35.83
23:56:31,3.703074,94.78,35.83
23:56:31,3.700513,94.78,35.83
23:56:32,3.699233,94.75,35.84
23:56:32,3.694112,94.75,35.84
23:56:32,3.691551,94.75,35.84
23:56:32,3.699233,94.75,35.84
23:56:33,3.700513,94.75,35.84
23:56:33,3.705635,94.75,35.84
23:56:33,3.704354,94.75,35.84
23:56:33,3.703074,94.75,35.84
23:56:34,3.703074,94.77,35.83
23:56:34,3.700513,94.77,35.83
23:56:34,3.697953,94.77,35.83
23:56:34,3.692831,94.77,35.83
23:56:35,3.68899,94.82,35.83
23:56:35,3.685149,94.82,35.83
23:56:35,3.691551,94.82,35.83
23:56:35,3.709476,94.82,35.83
23:56:36,3.732522,94.93,35.83
23:56:36,3.754287,94.93,35.83
23:56:36,3.769651,94.93,35.83
23:56:36,3.774772,94.93,35.83
23:56:37,3.7709309999999996,95.08,35.83
23:56:37,3.7606889999999997,95.08,35.83
23:56:37,3.751726,95.08,35.83
23:56:37,3.744045,95.08,35.83
23:56:38,3.728681,95.27,35.83
23:56:38,3.723559,95.27,35.83
23:56:38,3.713317,95.27,35.83
23:56:38,3.709476,95.27,35.83
23:56:39,3.706915,95.45,35.84
23:56:39,3.697953,95.45,35.84
23:56:39,3.68899,95.45,35.84
23:56:39,3.68643,95.45,35.84
23:56:40,3.681308,95.65,35.84
23:56:40,3.676187,95.65,35.84
23:56:40,3.681308,95.65,35.84
23:56:40,3.672346,95.65,35.84
23:56:41,3.677467,95.85,35.84
23:56:41,3.678748,95.85,35.84
23:56:41,3.677467,95.85,35.84
23:56:41,3.682589,95.85,35.84
23:56:42,3.682589,96.05,35.83
23:56:42,3.691551,96.05,35.83
23:56:42,3.695392,96.05,35.83
23:56:42,3.694112,96.05,35.83
23:56:43,3.694112,96.25,35.81
23:56:43,3.694112,96.25,35.81
23:56:43,3.68771,96.25,35.81
23:56:43,3.685149,96.25,35.81
23:56:44,3.678748,96.43,35.81
23:56:44,3.680028,96.43,35.81
23:56:44,3.683869,96.43,35.81
23:56:44,3.694112,96.43,35.81
23:56:45,3.717158,96.62,35.81
23:56:45,3.729961,96.62,35.81
23:56:45,3.76453,96.62,35.81
23:56:45,3.777333,96.62,35.81
23:56:46,3.779894,96.78,35.83
23:56:46,3.774772,96.78,35.83
23:56:46,3.7402040000000003,96.78,35.83
23:56:46,3.720999,96.78,35.83
23:56:47,3.705635,96.93,35.84
23:56:47,3.695392,96.93,35.84
23:56:47,3.691551,96.93,35.84
23:56:47,3.68771,96.93,35.84
23:56:48,3.681308,97.08,35.84
23:56:48,3.680028,97.08,35.84
23:56:48,3.671066,97.08,35.84
23:56:48,3.668505,97.08,35.84
23:56:49,3.6633839999999998,97.22,35.84
23:56:49,3.660823,97.22,35.84
23:56:49,3.658262,97.22,35.84
23:56:49,3.6544220000000003,97.22,35.84
23:56:50,3.653141,97.33,35.81
23:56:50,3.65058,97.33,35.81
23:56:50,3.6544220000000003,97.33,35.81
23:56:50,3.659543,97.33,35.81
23:56:51,3.6633839999999998,97.42,35.83
23:56:51,3.665944,97.42,35.83
23:56:51,3.664664,97.42,35.83
23:56:51,3.673626,97.42,35.83
23:56:52,3.694112,97.5,35.83
23:56:52,3.7274,97.5,35.83
23:56:52,3.7504459999999997,97.5,35.83
23:56:52,3.7709309999999996,97.5,35.83
23:56:53,3.7734919999999996,97.58,35.84
23:56:53,3.774772,97.58,35.84
23:56:53,3.7658099999999997,97.58,35.84
23:56:53,3.754287,97.58,35.84
23:56:54,3.7402040000000003,97.68,35.81
23:56:54,3.7312410000000003,97.68,35.81
23:56:54,3.719718,97.68,35.81
23:56:54,3.714597,97.68,35.81
23:56:55,3.709476,97.77,35.83
23:56:55,3.701794,97.77,35.83
23:56:55,3.692831,97.77,35.83
23:56:55,3.685149,97.77,35.83
23:56:56,3.680028,97.87,35.81
23:56:56,3.672346,97.87,35.81
23:56:56,3.668505,97.87,35.81
23:56:56,3.664664,97.87,35.81
23:56:57,3.6633839999999998,97.97,35.83
23:56:57,3.659543,97.97,35.83
23:56:57,3.653141,97.97,35.83
23:56:57,3.645459,97.97,35.83
23:56:58,3.6467389999999997,98.05,35.83
23:56:58,3.6416180000000002,98.05,35.83
23:56:58,3.640338,98.05,35.83
23:56:58,3.6416180000000002,98.05,35.83
23:56:59,3.6339360000000003,98.12,35.84
23:56:59,3.6339360000000003,98.12,35.84
23:56:59,3.627535,98.12,35.84
23:56:59,3.622413,98.12,35.84
23:57:00,3.6160120000000004,98.17,35.81
23:57:00,3.614731,98.17,35.81
23:57:00,3.624974,98.17,35.81
23:57:00,3.612171,98.17,35.81
23:57:01,3.60961,98.2,35.83
23:57:01,3.607049,98.2,35.83
23:57:01,3.6160120000000004,98.2,35.83
23:57:01,3.6134510000000004,98.2,35.83
23:57:02,3.60961,98.23,35.83
23:57:02,3.612171,98.23,35.83
23:57:02,3.6057690000000004,98.23,35.83
23:57:02,3.607049,98.23,35.83
23:57:03,3.612171,98.25,35.83
23:57:03,3.614731,98.25,35.83
23:57:03,3.6134510000000004,98.25,35.83
23:57:03,3.6160120000000004,98.25,35.83
23:57:04,3.61089,98.28,35.81
23:57:04,3.60961,98.28,35.81
23:57:04,3.6057690000000004,98.28,35.81
23:57:04,3.6083300000000005,98.28,35.81
23:57:05,3.612171,98.3,35.83
23:57:05,3.618572,98.3,35.83
23:57:05,3.614731,98.3,35.83
23:57:05,3.618572,98.3,35.83
23:57:06,3.6083300000000005,98.32,35.81
23:57:06,3.604489,98.32,35.81
23:57:06,3.5980870000000005,98.32,35.81
23:57:06,3.596807,98.32,35.81
23:57:07,3.5929660000000005,98.33,35.81
23:57:07,3.604489,98.33,35.81
23:57:07,3.6364970000000003,98.33,35.81
23:57:07,3.700513,98.33,35.81
23:57:08,3.777333,98.35,35.83
23:57:08,3.8464709999999998,98.35,35.83
23:57:08,3.886161,98.35,35.83
23:57:08,3.9130480000000003,98.35,35.83
23:57:09,3.9156089999999995,98.37,35.83
23:57:09,3.896404,98.37,35.83
23:57:09,3.860554,98.37,35.83
23:57:09,3.831107,98.37,35.83
23:57:10,3.80294,98.4,35.83
23:57:10,3.777333,98.4,35.83
23:57:10,3.754287,98.4,35.83
23:57:10,3.736362,98.4,35.83
23:57:11,3.728681,98.43,35.83
23:57:11,3.718438,98.43,35.83
23:57:11,3.715877,98.43,35.83
23:57:11,3.709476,98.43,35.83
23:57:12,3.703074,98.48,35.83
23:57:12,3.696672,98.48,35.83
23:57:12,3.692831,98.48,35.83
23:57:12,3.68771,98.48,35.83
23:57:13,3.68771,98.53,35.81
23:57:13,3.681308,98.53,35.81
23:57:13,3.681308,98.53,35.81
23:57:13,3.68643,98.53,35.81
23:57:14,3.701794,98.6,35.81
23:57:14,3.705635,98.6,35.81
23:57:14,3.712036,98.6,35.81
23:57:14,3.712036,98.6,35.81
23:57:15,3.713317,98.63,35.79
23:57:15,3.708195,98.63,35.79
23:57:15,3.697953,98.63,35.79
23:57:15,3.690271,98.63,35.79
23:57:16,3.68771,98.67,35.81
23:57:16,3.685149,98.67,35.81
23:57:16,3.694112,98.67,35.81
23:57:16,3.741484,98.67,35.81
23:57:17,3.822145,98.68,35.81
23:57:17,3.9271309999999997,98.68,35.81
23:57:17,3.9988300000000003,98.68,35.81
23:57:17,4.051323,98.68,35.81
23:57:18,4.059005,98.72,35.79
23:57:18,4.035959,98.72,35.79
23:57:18,3.99755,98.72,35.79
23:57:18,3.964261,98.72,35.79
23:57:19,3.9271309999999997,98.75,35.81
23:57:19,3.9002449999999995,98.75,35.81
23:57:19,3.878479,98.75,35.81
23:57:19,3.8797589999999995,98.75,35.81
23:57:20,3.8951230000000003,98.78,35.79
23:57:20,3.91945,98.78,35.79
23:57:20,3.938654,98.78,35.79
23:57:20,3.9399349999999997,98.78,35.79
23:57:21,3.9373739999999997,98.82,35.81
23:57:21,3.9271309999999997,98.82,35.81
23:57:21,3.9117669999999998,98.82,35.81
23:57:21,3.8925629999999996,98.82,35.81
23:57:22,3.8771989999999996,98.83,35.79
23:57:22,3.863115,98.83,35.79
23:57:22,3.8490309999999996,98.83,35.79
23:57:22,3.840069,98.83,35.79
23:57:23,3.8349480000000002,98.87,35.79
23:57:23,3.828546,98.87,35.79
23:57:23,3.8247050000000002,98.87,35.79
23:57:23,3.820864,98.87,35.79
23:57:24,3.813182,98.87,35.81
23:57:24,3.808061,98.87,35.81
23:57:24,3.799099,98.87,35.81
23:57:24,3.795258,98.87,35.81
23:57:25,3.787576,98.87,35.79
23:57:25,3.7811739999999996,98.87,35.79
23:57:25,3.783735,98.87,35.79
23:57:25,3.7862949999999995,98.87,35.79
23:57:26,3.787576,98.87,35.81
23:57:26,3.7862949999999995,98.87,35.81
23:57:26,3.7862949999999995,98.87,35.81
23:57:26,3.779894,98.87,35.81
23:57:27,3.774772,98.85,35.83
23:57:27,3.7709309999999996,98.85,35.83
23:57:27,3.76709,98.85,35.83
23:57:27,3.7606889999999997,98.85,35.83
23:57:28,3.756848,98.85,35.81
23:57:28,3.7581279999999997,98.85,35.81
23:57:28,3.751726,98.85,35.81
23:57:28,3.7530069999999998,98.85,35.81
23:57:29,3.7530069999999998,98.87,35.83
23:57:29,3.7504459999999997,98.87,35.83
23:57:29,3.744045,98.87,35.83
23:57:29,3.736362,98.87,35.83
23:57:30,3.7402040000000003,98.88,35.83
23:57:30,3.761969,98.88,35.83
23:57:30,3.8042199999999995,98.88,35.83
23:57:30,3.8515919999999997,98.88,35.83
23:57:31,3.8900019999999995,98.9,35.81
23:57:31,3.9156089999999995,98.9,35.81
23:57:31,3.924571,98.9,35.81
23:57:31,3.91945,98.9,35.81
23:57:32,3.904086,98.9,35.83
23:57:32,3.8823199999999995,98.9,35.83
23:57:32,3.8643949999999996,98.9,35.83
23:57:32,3.84135,98.9,35.83
23:57:33,3.829827,98.87,35.79
23:57:33,3.820864,98.87,35.79
23:57:33,3.811902,98.87,35.79
23:57:33,3.8042199999999995,98.87,35.79
23:57:34,3.797818,98.82,35.79
23:57:34,3.790136,98.82,35.79
23:57:34,3.795258,98.82,35.79
23:57:34,3.791417,98.82,35.79
23:57:35,3.808061,98.73,35.81
23:57:35,3.819584,98.73,35.81
23:57:35,3.8247050000000002,98.73,35.81
23:57:35,3.833668,98.73,35.81
23:57:36,3.831107,98.58,35.81
23:57:36,3.829827,98.58,35.81
23:57:36,3.823425,98.58,35.81
23:57:36,3.811902,98.58,35.81
23:57:37,3.80294,98.42,35.81
23:57:37,3.806781,98.42,35.81
23:57:37,3.799099,98.42,35.81
23:57:37,3.791417,98.42,35.81
23:57:38,3.7888559999999996,98.23,35.81
23:57:38,3.7939769999999995,98.23,35.81
23:57:38,3.782454,98.23,35.81
23:57:38,3.787576,98.23,35.81
23:57:39,3.814463,98.05,35.83
23:57:39,3.84135,98.05,35.83
23:57:39,3.875918,98.05,35.83
23:57:39,3.9156089999999995,98.05,35.83
23:57:40,3.941215,97.87,35.81
23:57:40,3.938654,97.87,35.81
23:57:40,3.933533,97.87,35.81
23:57:40,3.9053660000000003,97.87,35.81
23:57:41,3.893843,97.7,35.83
23:57:41,3.8746379999999996,97.7,35.83
23:57:41,3.850312,97.7,35.83
23:57:41,3.829827,97.7,35.83
23:57:42,3.814463,97.55,35.81
23:57:42,3.797818,97.55,35.81
23:57:42,3.7862949999999995,97.55,35.81
23:57:42,3.777333,97.55,35.81
23:57:43,3.769651,97.42,35.84
23:57:43,3.759408,97.42,35.84
23:57:43,3.759408,97.42,35.84
23:57:43,3.7555680000000002,97.42,35.84
23:57:44,3.751726,97.3,35.83
23:57:44,3.746605,97.3,35.83
23:57:44,3.735082,97.3,35.83
23:57:44,3.728681,97.3,35.83
23:57:45,3.744045,97.18,35.83
23:57:45,3.7427639999999998,97.18,35.83
23:57:45,3.729961,97.18,35.83
23:57:45,3.724839,97.18,35.83
23:57:46,3.722279,97.07,35.81
23:57:46,3.718438,97.07,35.81
23:57:46,3.712036,97.07,35.81
23:57:46,3.701794,97.07,35.81
23:57:47,3.704354,96.98,35.83
23:57:47,3.709476,96.98,35.83
23:57:47,3.710756,96.98,35.83
23:57:47,3.717158,96.98,35.83
23:57:48,3.718438,96.88,35.83
23:57:48,3.719718,96.88,35.83
23:57:48,3.703074,96.88,35.83
23:57:48,3.68899,96.88,35.83
23:57:49,3.678748,96.78,35.83
23:57:49,3.672346,96.78,35.83
23:57:49,3.669785,96.78,35.83
23:57:49,3.665944,96.78,35.83
23:57:50,3.668505,96.68,35.83
23:57:50,3.671066,96.68,35.83
23:57:50,3.668505,96.68,35.83
23:57:50,3.6621029999999997,96.68,35.83
23:57:51,3.660823,96.6,35.84
23:57:51,3.660823,96.6,35.84
23:57:51,3.6544220000000003,96.6,35.84
23:57:51,3.65058,96.6,35.84
23:57:52,3.6467389999999997,96.53,35.83
23:57:52,3.6441790000000003,96.53,35.83
23:57:52,3.637777,96.53,35.83
23:57:52,3.6364970000000003,96.53,35.83
23:57:53,3.6313760000000004,96.43,35.83
23:57:53,3.630095,96.43,35.83
23:57:53,3.627535,96.43,35.83
23:57:53,3.626254,96.43,35.83
23:57:54,3.622413,96.33,35.83
23:57:54,3.622413,96.33,35.83
23:57:54,3.6134510000000004,96.33,35.83
23:57:54,3.6083300000000005,96.33,35.83
23:57:55,3.604489,96.23,35.83
23:57:55,3.6083300000000005,96.23,35.83
23:57:55,3.6006480000000005,96.23,35.83
23:57:55,3.603208,96.23,35.83
23:57:56,3.5980870000000005,96.13,35.81
23:57:56,3.599367,96.13,35.81
23:57:56,3.599367,96.13,35.81
23:57:56,3.594246,96.13,35.81
23:57:57,3.591685,96.05,35.81
23:57:57,3.595526,96.05,35.81
23:57:57,3.587844,96.05,35.81
23:57:57,3.582723,96.05,35.81
23:57:58,3.584003,96.0,35.84
23:57:58,3.578882,96.0,35.84
23:57:58,3.5776019999999997,96.0,35.84
23:57:58,3.581443,96.0,35.84
23:57:59,3.587844,96.0,35.83
23:57:59,3.594246,96.0,35.83
23:57:59,3.5929660000000005,96.0,35.83
23:57:59,3.595526,96.0,35.83
23:58:00,3.591685,96.03,35.81
23:58:00,3.589125,96.03,35.81
23:58:00,3.594246,96.03,35.81
23:58:00,3.5904050000000005,96.03,35.81
23:58:01,3.5852839999999997,96.1,35.83
23:58:01,3.586564,96.1,35.83
23:58:01,3.581443,96.1,35.83
23:58:01,3.576321,96.1,35.83
23:58:02,3.5712,96.17,35.83
23:58:02,3.5686400000000003,96.17,35.83
23:58:02,3.564798,96.17,35.83
23:58:02,3.5583970000000003,96.17,35.83
23:58:03,3.560957,96.23,35.81
23:58:03,3.5686400000000003,96.23,35.81
23:58:03,3.57248,96.23,35.81
23:58:03,3.578882,96.23,35.81
23:58:04,3.573761,96.28,35.83
23:58:04,3.575041,96.28,35.83
23:58:04,3.575041,96.28,35.83
23:58:04,3.575041,96.28,35.83
23:58:05,3.5673589999999997,96.33,35.83
23:58:05,3.57248,96.33,35.83
23:58:05,3.560957,96.33,35.83
23:58:05,3.562238,96.33,35.83
23:58:06,3.551995,96.35,35.83
23:58:06,3.5481540000000003,96.35,35.83
23:58:06,3.544313,96.35,35.83
23:58:06,3.539192,96.35,35.83
23:58:07,3.5379120000000004,96.37,35.84
23:58:07,3.53407,96.37,35.84
23:58:07,3.5327900000000003,96.37,35.84
23:58:07,3.5302300000000004,96.37,35.84
23:58:08,3.526389,96.38,35.83
23:58:08,3.5276690000000004,96.38,35.83
23:58:08,3.526389,96.38,35.83
23:58:08,3.521267,96.38,35.83
23:58:09,3.5199870000000004,96.38,35.84
23:58:09,3.518707,96.38,35.84
23:58:09,3.513585,96.38,35.84
23:58:09,3.5123050000000005,96.38,35.84
23:58:10,3.5097440000000004,96.37,35.81
23:58:10,3.505903,96.37,35.81
23:58:10,3.508464,96.37,35.81
23:58:10,3.5123050000000005,96.37,35.81
23:58:11,3.5276690000000004,96.33,35.83
23:58:11,3.575041,96.33,35.83
23:58:11,3.6313760000000004,96.33,35.83
23:58:11,3.695392,96.33,35.83
23:58:12,3.728681,96.3,35.83
23:58:12,3.741484,96.3,35.83
23:58:12,3.738923,96.3,35.83
23:58:12,3.722279,96.3,35.83
23:58:13,3.704354,96.27,35.83
23:58:13,3.682589,96.27,35.83
23:58:13,3.658262,96.27,35.83
23:58:13,3.630095,96.27,35.83
23:58:14,3.614731,96.22,35.83
23:58:14,3.6057690000000004,96.22,35.83
23:58:14,3.599367,96.22,35.83
23:58:14,3.587844,96.22,35.83
23:58:15,3.576321,96.17,35.83
23:58:15,3.5712,96.17,35.83
23:58:15,3.564798,96.17,35.83
23:58:15,3.564798,96.17,35.83
23:58:16,3.557117,96.12,35.83
23:58:16,3.554556,96.12,35.83
23:58:16,3.551995,96.12,35.83
23:58:16,3.5455940000000004,96.12,35.83
23:58:17,3.546874,96.08,35.83
23:58:17,3.5404720000000003,96.08,35.83
23:58:17,3.5379120000000004,96.08,35.83
23:58:17,3.536631,96.08,35.83
23:58:18,3.53407,96.05,35.84
23:58:18,3.53151,96.05,35.84
23:58:18,3.5327900000000003,96.05,35.84
23:58:18,3.5276690000000004,96.05,35.84
23:58:19,3.5225480000000005,96.03,35.83
23:58:19,3.518707,96.03,35.83
23:58:19,3.5174260000000004,96.03,35.83
23:58:19,3.5123050000000005,96.03,35.83
23:58:20,3.5148660000000005,96.02,35.84
23:58:20,3.5123050000000005,96.02,35.84
23:58:20,3.5123050000000005,96.02,35.84
23:58:20,3.5046230000000005,96.02,35.84
23:58:21,3.503343,96.02,35.83
23:58:21,3.4995019999999997,96.02,35.83
23:58:21,3.500782,96.02,35.83
23:58:21,3.4943800000000005,96.02,35.83
23:58:22,3.4892589999999997,96.03,35.84
23:58:22,3.4931,96.03,35.84
23:58:22,3.4918199999999997,96.03,35.84
23:58:22,3.4866980000000005,96.03,35.84
23:58:23,3.487979,96.05,35.83
23:58:23,3.487979,96.05,35.83
23:58:23,3.479017,96.05,35.83
23:58:23,3.4815769999999997,96.05,35.83
23:58:24,3.477736,96.1,35.84
23:58:24,3.477736,96.1,35.84
23:58:24,3.479017,96.1,35.84
23:58:24,3.477736,96.1,35.84
23:58:25,3.4764559999999998,96.13,35.83
23:58:25,3.4713339999999997,96.13,35.83
23:58:25,3.4738949999999997,96.13,35.83
23:58:25,3.470054,96.13,35.83
23:58:26,3.4713339999999997,96.18,35.83
23:58:26,3.468774,96.18,35.83
23:58:26,3.461092,96.18,35.83
23:58:26,3.4572510000000003,96.18,35.83
23:58:27,3.461092,96.25,35.83
23:58:27,3.4674940000000003,96.25,35.83
23:58:27,3.4636519999999997,96.25,35.83
23:58:27,3.455971,96.25,35.83
23:58:28,3.45341,96.32,35.83
23:58:28,3.4470080000000003,96.32,35.83
23:58:28,3.4444480000000004,96.32,35.83
23:58:28,3.4444480000000004,96.32,35.83
23:58:29,3.440607,96.38,35.81
23:58:29,3.44794,96.38,35.81
23:58:29,3.4466589999999995,96.38,35.81
23:58:29,3.4415379999999995,96.38,35.81
23:58:30,3.440258,96.45,35.83
23:58:30,3.4466589999999995,96.45,35.83
23:58:30,3.440258,96.45,35.83
23:58:30,3.435136,96.45,35.83
23:58:31,3.435136,96.53,35.84
23:58:31,3.4338559999999996,96.53,35.84
23:58:31,3.4389769999999995,96.53,35.84
23:58:31,3.442818,96.53,35.84
23:58:32,3.442818,96.63,35.83
23:58:32,3.4415379999999995,96.63,35.83
23:58:32,3.4338559999999996,96.63,35.83
23:58:32,3.437697,96.63,35.83
23:58:33,3.430015,96.75,35.83
23:58:33,3.424894,96.75,35.83
23:58:33,3.4159309999999996,96.75,35.83
23:58:33,3.4184919999999996,96.75,35.83
23:58:34,3.40953,96.87,35.83
23:58:34,3.406969,96.87,35.83
23:58:34,3.4031279999999997,96.87,35.83
23:58:34,3.399287,96.87,35.83
23:58:35,3.3954459999999997,96.98,35.84
23:58:35,3.3954459999999997,96.98,35.84
23:58:35,3.3980069999999998,96.98,35.84
23:58:35,3.3980069999999998,96.98,35.84
23:58:36,3.3980069999999998,97.1,35.84
23:58:36,3.399287,97.1,35.84
23:58:36,3.396727,97.1,35.84
23:58:36,3.391605,97.1,35.84
23:58:37,3.3928849999999997,97.2,35.83
23:58:37,3.391605,97.2,35.83
23:58:37,3.3928849999999997,97.2,35.83
23:58:37,3.389045,97.2,35.83
23:58:38,3.385204,97.3,35.84
23:58:38,3.389045,97.3,35.84
23:58:38,3.378802,97.3,35.84
23:58:38,3.3724,97.3,35.84
23:58:39,3.373681,97.4,35.83
23:58:39,3.378802,97.4,35.83
23:58:39,3.381363,97.4,35.83
23:58:39,3.382643,97.4,35.83
23:58:40,3.382643,97.48,35.83
23:58:40,3.381363,97.48,35.83
23:58:40,3.386484,97.48,35.83
23:58:40,3.3762410000000003,97.48,35.83
23:58:41,3.374961,97.55,35.83
23:58:41,3.377522,97.55,35.83
23:58:41,3.3724,97.55,35.83
23:58:41,3.368559,97.55,35.83
23:58:42,3.36984,97.62,35.83
23:58:42,3.365999,97.62,35.83
23:58:42,3.368559,97.62,35.83
23:58:42,3.368559,97.62,35.83
23:58:43,3.363438,97.65,35.81
23:58:43,3.364718,97.65,35.81
23:58:43,3.360877,97.65,35.81
23:58:43,3.360877,97.65,35.81
23:58:44,3.355756,97.68,35.83
23:58:44,3.353195,97.68,35.83
23:58:44,3.350635,97.68,35.83
23:58:44,3.348074,97.68,35.83
23:58:45,3.348074,97.7,35.83
23:58:45,3.345513,97.7,35.83
23:58:45,3.342953,97.7,35.83
23:58:45,3.341672,97.7,35.83
23:58:46,3.336551,97.72,35.83
23:58:46,3.340392,97.72,35.83
23:58:46,3.335271,97.72,35.83
23:58:46,3.3301489999999996,97.72,35.83
23:58:47,3.33143,97.72,35.83
23:58:47,3.326308,97.72,35.83
23:58:47,3.326308,97.72,35.83
23:58:47,3.323748,97.72,35.83
23:58:48,3.323748,97.73,35.84
23:58:48,3.323748,97.73,35.84
23:58:48,3.318626,97.73,35.84
23:58:48,3.321187,97.73,35.84
23:58:49,3.318626,97.75,35.83
23:58:49,3.319907,97.75,35.83
23:58:49,3.321187,97.75,35.83
23:58:49,3.321187,97.75,35.83
23:58:50,3.325028,97.78,35.83
23:58:50,3.323748,97.78,35.83
23:58:50,3.321187,97.78,35.83
23:58:50,3.316066,97.78,35.83
23:58:51,3.318626,97.82,35.83
23:58:51,3.319907,97.82,35.83
23:58:51,3.313505,97.82,35.83
23:58:51,3.313505,97.82,35.83
23:58:52,3.310945,97.83,35.84
23:58:52,3.310945,97.83,35.84
23:58:52,3.3083839999999998,97.83,35.84
23:58:52,3.310945,97.83,35.84
23:58:53,3.327589,97.87,35.83
23:58:53,3.351915,97.87,35.83
23:58:53,3.36984,97.87,35.83
23:58:53,3.377522,97.87,35.83
23:58:54,3.381363,97.88,35.84
23:58:54,3.380082,97.88,35.84
23:58:54,3.373681,97.88,35.84
23:58:54,3.367279,97.88,35.84
23:58:55,3.364718,97.88,35.83
23:58:55,3.357036,97.88,35.83
23:58:55,3.354476,97.88,35.83
23:58:55,3.351915,97.88,35.83
23:58:56,3.348074,97.88,35.84
23:58:56,3.342953,97.88,35.84
23:58:56,3.341672,97.88,35.84
23:58:56,3.341672,97.88,35.84
23:58:57,3.336551,97.87,35.81
23:58:57,3.33271,97.87,35.81
23:58:57,3.328869,97.87,35.81
23:58:57,3.323748,97.87,35.81
23:58:58,3.322468,97.85,35.83
23:58:58,3.318626,97.85,35.83
23:58:58,3.316066,97.85,35.83
23:58:58,3.312225,97.85,35.83
23:58:59,3.312225,97.8,35.83
23:58:59,3.312225,97.8,35.83
23:58:59,3.303262,97.8,35.83
23:58:59,3.300702,97.8,35.83
23:59:00,3.300702,97.72,35.83
23:59:00,3.2943,97.72,35.83
23:59:00,3.2994220000000003,97.72,35.83
23:59:00,3.2917400000000003,97.72,35.83
23:59:01,3.285338,97.62,35.84
23:59:01,3.285338,97.62,35.84
23:59:01,3.2840580000000004,97.62,35.84
23:59:01,3.278936,97.62,35.84
23:59:02,3.278936,97.52,35.83
23:59:02,3.285338,97.52,35.83
23:59:02,3.280217,97.52,35.83
23:59:02,3.276376,97.52,35.83
23:59:03,3.275095,97.4,35.83
23:59:03,3.275095,97.4,35.83
23:59:03,3.286618,97.4,35.83
23:59:03,3.33271,97.4,35.83
23:59:04,3.4108099999999997,97.28,35.81
23:59:04,3.505554,97.28,35.81
23:59:04,3.5823739999999997,97.28,35.81
23:59:04,3.6310269999999996,97.28,35.81
23:59:05,3.647671,97.15,35.83
23:59:05,3.64255,97.15,35.83
23:59:05,3.6156629999999996,97.15,35.83
23:59:05,3.5951769999999996,97.15,35.83
23:59:06,3.572132,97.03,35.81
23:59:06,3.5606089999999995,97.03,35.81
23:59:06,3.549086,97.03,35.81
23:59:06,3.5375629999999996,97.03,35.81
23:59:07,3.5247599999999997,96.92,35.83
23:59:07,3.5145169999999997,96.92,35.83
23:59:07,3.502994,96.92,35.83
23:59:07,3.4914709999999998,96.92,35.83
23:59:08,3.4812279999999998,96.78,35.83
23:59:08,3.4697050000000003,96.78,35.83
23:59:08,3.4620230000000003,96.78,35.83
23:59:08,3.460743,96.78,35.83
23:59:09,3.4440989999999996,96.67,35.81
23:59:09,3.435136,96.67,35.81
23:59:09,3.4338559999999996,96.67,35.81
23:59:09,3.432576,96.67,35.81
23:59:10,3.423614,96.57,35.83
23:59:10,3.414651,96.57,35.83
23:59:10,3.40825,96.57,35.83
23:59:10,3.3980069999999998,96.57,35.83
23:59:11,3.3941660000000002,96.48,35.83
23:59:11,3.386484,96.48,35.83
23:59:11,3.382643,96.48,35.83
23:59:11,3.385204,96.48,35.83
23:59:12,3.381363,96.4,35.83
23:59:12,3.380082,96.4,35.83
23:59:12,3.3762410000000003,96.4,35.83
23:59:12,3.378802,96.4,35.83
23:59:13,3.381363,96.33,35.83
23:59:13,3.367279,96.33,35.83
23:59:13,3.355756,96.33,35.83
23:59:13,3.349354,96.33,35.83
23:59:14,3.348074,96.3,35.83
23:59:14,3.353195,96.3,35.83
23:59:14,3.351915,96.3,35.83
23:59:14,3.351915,96.3,35.83
23:59:15,3.350635,96.28,35.83
23:59:15,3.354476,96.28,35.83
23:59:15,3.346794,96.28,35.83
23:59:15,3.351915,96.28,35.83
23:59:16,3.351915,96.25,35.83
23:59:16,3.346794,96.25,35.83
23:59:16,3.345513,96.25,35.83
23:59:16,3.344233,96.25,35.83
23:59:17,3.335271,96.22,35.83
23:59:17,3.336551,96.22,35.83
23:59:17,3.33271,96.22,35.83
23:59:17,3.3301489999999996,96.22,35.83
23:59:18,3.327589,96.17,35.83
23:59:18,3.328869,96.17,35.83
23:59:18,3.323748,96.17,35.83
23:59:18,3.318626,96.17,35.83
23:59:19,3.319907,96.1,35.81
23:59:19,3.321187,96.1,35.81
23:59:19,3.318626,96.1,35.81
23:59:19,3.326308,96.1,35.81
23:59:20,3.327589,96.03,35.83
23:59:20,3.327589,96.03,35.83
23:59:20,3.33399,96.03,35.83
23:59:20,3.325028,96.03,35.83
23:59:21,3.318626,95.95,35.83
23:59:21,3.316066,95.95,35.83
23:59:21,3.317346,95.95,35.83
23:59:21,3.3083839999999998,95.95,35.83
23:59:22,3.3045430000000002,95.87,35.81
23:59:22,3.300702,95.87,35.81
23:59:22,3.29302,95.87,35.81
23:59:22,3.29302,95.87,35.81
23:59:23,3.290459,95.8,35.81
23:59:23,3.290459,95.8,35.81
23:59:23,3.2917400000000003,95.8,35.81
23:59:23,3.2891790000000003,95.8,35.81
23:59:24,3.287899,95.72,35.81
23:59:24,3.285338,95.72,35.81
23:59:24,3.285338,95.72,35.81
23:59:24,3.282777,95.72,35.81
23:59:25,3.2840580000000004,95.65,35.81
23:59:25,3.282777,95.65,35.81
23:59:25,3.278936,95.65,35.81
23:59:25,3.276376,95.65,35.81
23:59:26,3.2814970000000003,95.58,35.83
23:59:26,3.280217,95.58,35.83
23:59:26,3.278936,95.58,35.83
23:59:26,3.280217,95.58,35.83
23:59:27,3.278936,95.52,35.81
23:59:27,3.275095,95.52,35.81
23:59:27,3.272535,95.52,35.81
23:59:27,3.268694,95.52,35.81
23:59:28,3.266133,95.45,35.83
23:59:28,3.264853,95.45,35.83
23:59:28,3.263572,95.45,35.83
23:59:28,3.266133,95.45,35.83
23:59:29,3.263572,95.4,35.84
23:59:29,3.267413,95.4,35.84
23:59:29,3.282777,95.4,35.84
23:59:29,3.312225,95.4,35.84
23:59:30,3.346794,95.37,35.84
23:59:30,3.3762410000000003,95.37,35.84
23:59:30,3.390325,95.37,35.84
23:59:30,3.3980069999999998,95.37,35.84
23:59:31,3.396727,95.33,35.81
23:59:31,3.3877639999999998,95.33,35.81
23:59:31,3.374961,95.33,35.81
23:59:31,3.373681,95.33,35.81
23:59:32,3.377522,95.28,35.83
23:59:32,3.3839230000000002,95.28,35.83
23:59:32,3.378802,95.28,35.83
23:59:32,3.373681,95.28,35.83
23:59:33,3.365999,95.23,35.84
23:59:33,3.353195,95.23,35.84
23:59:33,3.336551,95.23,35.84
23:59:33,3.322468,95.23,35.84
23:59:34,3.3083839999999998,95.18,35.83
23:59:34,3.305823,95.18,35.83
23:59:34,3.3045430000000002,95.18,35.83
23:59:34,3.29302,95.18,35.83
23:59:35,3.29302,95.12,35.81
23:59:35,3.2840580000000004,95.12,35.81
23:59:35,3.277656,95.12,35.81
23:59:35,3.272535,95.12,35.81
23:59:36,3.272535,95.05,35.81
23:59:36,3.275095,95.05,35.81
23:59:36,3.2699740000000004,95.05,35.81
23:59:36,3.262292,95.05,35.81
23:59:37,3.267413,95.0,35.83
23:59:37,3.275095,95.0,35.83
23:59:37,3.272535,95.0,35.83
23:59:37,3.2738150000000004,95.0,35.83
23:59:38,3.272535,94.93,35.83
23:59:38,3.2738150000000004,94.93,35.83
23:59:38,3.272535,94.93,35.83
23:59:38,3.2738150000000004,94.93,35.83
23:59:39,3.272535,94.87,35.83
23:59:39,3.2738150000000004,94.87,35.83
23:59:39,3.271254,94.87,35.83
23:59:39,3.271254,94.87,35.83
23:59:40,3.271254,94.82,35.83
23:59:40,3.267413,94.82,35.83
23:59:40,3.2699740000000004,94.82,35.83
23:59:40,3.259731,94.82,35.83
23:59:41,3.261012,94.77,35.83
23:59:41,3.25461,94.77,35.83
23:59:41,3.25589,94.77,35.83
23:59:41,3.25461,94.77,35.83
23:59:42,3.252049,94.73,35.83
23:59:42,3.249489,94.73,35.83
23:59:42,3.244367,94.73,35.83
23:59:42,3.246928,94.73,35.83
23:59:43,3.243087,94.72,35.83
23:59:43,3.244367,94.72,35.83
23:59:43,3.236686,94.72,35.83
23:59:43,3.237966,94.72,35.83
23:59:44,3.235405,94.72,35.83
23:59:44,3.229003,94.72,35.83
23:59:44,3.232844,94.72,35.83
23:59:44,3.261012,94.72,35.83
23:59:45,3.317346,94.75,35.84
23:59:45,3.400568,94.75,35.84
23:59:45,3.459463,94.75,35.84
23:59:45,3.5017139999999998,94.75,35.84
23:59:46,3.531161,94.8,35.83
23:59:46,3.5350019999999995,94.8,35.83
23:59:46,3.520918,94.8,35.83
23:59:46,3.4965919999999997,94.8,35.83
23:59:47,3.455622,94.85,35.81
23:59:47,3.4210529999999997,94.85,35.81
23:59:47,3.396727,94.85,35.81
23:59:47,3.385204,94.85,35.81
23:59:48,3.374961,94.88,35.83
23:59:48,3.374961,94.88,35.83
23:59:48,3.364718,94.88,35.83
23:59:48,3.360877,94.88,35.83
23:59:49,3.353195,94.92,35.83
23:59:49,3.351915,94.92,35.83
23:59:49,3.344233,94.92,35.83
23:59:49,3.342953,94.92,35.83
23:59:50,3.336551,94.92,35.83
23:59:50,3.33271,94.92,35.83
23:59:50,3.326308,94.92,35.83
23:59:50,3.319907,94.92,35.83
23:59:51,3.317346,94.9,35.83
23:59:51,3.3147849999999996,94.9,35.83
23:59:51,3.3083839999999998,94.9,35.83
23:59:51,3.305823,94.9,35.83
23:59:52,3.303262,94.87,35.81
23:59:52,3.3071040000000003,94.87,35.81
23:59:52,3.3071040000000003,94.87,35.81
23:59:52,3.3071040000000003,94.87,35.81
23:59:53,3.310945,94.83,35.81
23:59:53,3.312225,94.83,35.81
23:59:53,3.3083839999999998,94.83,35.81
23:59:53,3.305823,94.83,35.81
23:59:54,3.3019819999999998,94.8,35.83
23:59:54,3.298141,94.8,35.83
23:59:54,3.290459,94.8,35.83
23:59:54,3.287899,94.8,35.83
23:59:55,3.2814970000000003,94.78,35.83
23:59:55,3.2840580000000004,94.78,35.83
23:59:55,3.278936,94.78,35.83
23:59:55,3.277656,94.78,35.83
23:59:56,3.263572,94.77,35.83
23:59:56,3.267413,94.77,35.83
23:59:56,3.263572,94.77,35.83
23:59:56,3.258451,94.77,35.83
23:59:57,3.25461,94.73,35.83
23:59:57,3.25461,94.73,35.83
23:59:57,3.263572,94.73,35.83
23:59:57,3.264853,94.73,35.83
23:59:58,3.280217,94.68,35.83
23:59:58,3.316066,94.68,35.83
23:59:58,3.339112,94.68,35.83
23:59:58,3.349354,94.68,35.83
23:59:59,3.360877,94.62,35.83
23:59:59,3.359597,94.62,35.83
23:59:59,3.348074,94.62,35.83
23:59:59,3.339112,94.62,35.83
00:00:00,3.326308,94.55,35.83
00:00:00,3.317346,94.55,35.83
00:00:00,3.312225,94.55,35.83
00:00:00,3.2994220000000003,94.55,35.83
00:00:01,3.287899,94.47,35.84
00:00:01,3.286618,94.47,35.84
00:00:01,3.282777,94.47,35.84
00:00:01,3.2891790000000003,94.47,35.84
00:00:02,3.2994220000000003,94.38,35.83
00:00:02,3.312225,94.38,35.83
00:00:02,3.316066,94.38,35.83
00:00:02,3.3147849999999996,94.38,35.83
00:00:03,3.316066,94.33,35.87
00:00:03,3.3083839999999998,94.33,35.87
00:00:03,3.2994220000000003,94.33,35.87
00:00:03,3.2917400000000003,94.33,35.87
00:00:04,3.286618,94.3,35.83
00:00:04,3.282777,94.3,35.83
00:00:04,3.277656,94.3,35.83
00:00:04,3.2738150000000004,94.3,35.83
00:00:05,3.271254,94.28,35.83
00:00:05,3.268694,94.28,35.83
00:00:05,3.263572,94.28,35.83
00:00:05,3.276376,94.28,35.83
00:00:06,3.318626,94.27,35.84
00:00:06,3.3877639999999998,94.27,35.84
00:00:06,3.465864,94.27,35.84
00:00:06,3.52604,94.27,35.84
00:00:07,3.572132,94.23,35.83
00:00:07,3.596458,94.23,35.83
00:00:07,3.5900559999999997,94.23,35.83
00:00:07,3.556768,94.23,35.83
00:00:08,3.523479,94.2,35.84
00:00:08,3.4914709999999998,94.2,35.84
00:00:08,3.465864,94.2,35.84
00:00:08,3.4415379999999995,94.2,35.84
00:00:09,3.423614,94.15,35.84
00:00:09,3.4108099999999997,94.15,35.84
00:00:09,3.396727,94.15,35.84
00:00:09,3.3839230000000002,94.15,35.84
00:00:10,3.374961,94.08,35.83
00:00:10,3.37112,94.08,35.83
00:00:10,3.359597,94.08,35.83
00:00:10,3.353195,94.08,35.83
00:00:11,3.345513,94.02,35.83
00:00:11,3.3378309999999995,94.02,35.83
00:00:11,3.33399,94.02,35.83
00:00:11,3.326308,94.02,35.83
00:00:12,3.325028,93.95,35.84
00:00:12,3.323748,93.95,35.84
00:00:12,3.319907,93.95,35.84
00:00:12,3.318626,93.95,35.84
00:00:13,3.317346,93.87,35.84
00:00:13,3.3147849999999996,93.87,35.84
00:00:13,3.3083839999999998,93.87,35.84
00:00:13,3.3083839999999998,93.87,35.84
00:00:14,3.300702,93.77,35.84
00:00:14,3.2943,93.77,35.84
00:00:14,3.29302,93.77,35.84
00:00:14,3.2840580000000004,93.77,35.84
00:00:15,3.286618,93.67,35.83
00:00:15,3.286618,93.67,35.83
00:00:15,3.2840580000000004,93.67,35.83
00:00:15,3.2814970000000003,93.67,35.83
00:00:16,3.277656,93.6,35.84
00:00:16,3.276376,93.6,35.84
00:00:16,3.2738150000000004,93.6,35.84
00:00:16,3.272535,93.6,35.84
00:00:17,3.266133,93.53,35.84
00:00:17,3.264853,93.53,35.84
00:00:17,3.264853,93.53,35.84
00:00:17,3.259731,93.53,35.84
00:00:18,3.257171,93.48,35.84
00:00:18,3.264853,93.48,35.84
00:00:18,3.2840580000000004,93.48,35.84
00:00:18,3.303262,93.48,35.84
00:00:19,3.316066,93.42,35.84
00:00:19,3.33271,93.42,35.84
00:00:19,3.346794,93.42,35.84
00:00:19,3.342953,93.42,35.84
00:00:20,3.33271,93.37,35.83
00:00:20,3.323748,93.37,35.83
00:00:20,3.321187,93.37,35.83
00:00:20,3.3147849999999996,93.37,35.83
00:00:21,3.353195,93.3,35.84
00:00:21,3.4287349999999996,93.3,35.84
00:00:21,3.4991529999999997,93.3,35.84
00:00:21,3.56445,93.3,35.84
00:00:22,3.629746,93.25,35.84
00:00:22,3.64255,93.25,35.84
00:00:22,3.6310269999999996,93.25,35.84
00:00:22,3.6002989999999997,93.25,35.84
00:00:23,3.5682910000000003,93.18,35.84
00:00:23,3.5350019999999995,93.18,35.84
00:00:23,3.502994,93.18,35.84
00:00:23,3.482509,93.18,35.84
00:00:24,3.465864,93.13,35.84
00:00:24,3.4466589999999995,93.13,35.84
00:00:24,3.435136,93.13,35.84
00:00:24,3.4261739999999996,93.13,35.84
00:00:25,3.4159309999999996,93.1,35.83
00:00:25,3.4108099999999997,93.1,35.83
00:00:25,3.400568,93.1,35.83
00:00:25,3.3954459999999997,93.1,35.83
00:00:26,3.3954459999999997,93.07,35.84
00:00:26,3.3928849999999997,93.07,35.84
00:00:26,3.390325,93.07,35.84
00:00:26,3.3877639999999998,93.07,35.84
00:00:27,3.381363,93.05,35.87
00:00:27,3.377522,93.05,35.87
00:00:27,3.3724,93.05,35.87
00:00:27,3.37112,93.05,35.87
00:00:28,3.364718,93.03,35.87
00:00:28,3.358317,93.03,35.87
00:00:28,3.359597,93.03,35.87
00:00:28,3.355756,93.03,35.87
00:00:29,3.353195,93.02,35.87
00:00:29,3.354476,93.02,35.87
00:00:29,3.350635,93.02,35.87
00:00:29,3.349354,93.02,35.87
00:00:30,3.345513,92.98,35.83
00:00:30,3.342953,92.98,35.83
00:00:30,3.340392,92.98,35.83
00:00:30,3.339112,92.98,35.83
00:00:31,3.335271,92.93,35.84
00:00:31,3.335271,92.93,35.84
00:00:31,3.339112,92.93,35.84
00:00:31,3.339112,92.93,35.84
00:00:32,3.340392,92.9,35.83
00:00:32,3.344233,92.9,35.83
00:00:32,3.340392,92.9,35.83
00:00:32,3.3378309999999995,92.9,35.83
00:00:33,3.335271,92.85,35.84
00:00:33,3.33399,92.85,35.84
00:00:33,3.328869,92.85,35.84
00:00:33,3.328869,92.85,35.84
00:00:34,3.323748,92.8,35.84
00:00:34,3.33143,92.8,35.84
00:00:34,3.325028,92.8,35.84
00:00:34,3.326308,92.8,35.84
00:00:35,3.325028,92.75,35.84
00:00:35,3.326308,92.75,35.84
00:00:35,3.3301489999999996,92.75,35.84
00:00:35,3.33271,92.75,35.84
00:00:36,3.335271,92.7,35.84
00:00:36,3.33143,92.7,35.84
00:00:36,3.323748,92.7,35.84
00:00:36,3.317346,92.7,35.84
00:00:37,3.317346,92.63,35.83
00:00:37,3.3071040000000003,92.63,35.83
00:00:37,3.3045430000000002,92.63,35.83
00:00:37,3.317346,92.63,35.83
00:00:38,3.316066,92.57,35.84
00:00:38,3.335271,92.57,35.84
00:00:38,3.342953,92.57,35.84
00:00:38,3.351915,92.57,35.84
00:00:39,3.358317,92.5,35.84
00:00:39,3.368559,92.5,35.84
00:00:39,3.377522,92.5,35.84
00:00:39,3.391605,92.5,35.84
00:00:40,3.3954459999999997,92.42,35.87
00:00:40,3.399287,92.42,35.87
00:00:40,3.400568,92.42,35.87
00:00:40,3.385204,92.42,35.87
00:00:41,3.3762410000000003,92.32,35.84
00:00:41,3.368559,92.32,35.84
00:00:41,3.363438,92.32,35.84
00:00:41,3.357036,92.32,35.84
00:00:42,3.349354,92.2,35.84
00:00:42,3.342953,92.2,35.84
00:00:42,3.339112,92.2,35.84
00:00:42,3.33271,92.2,35.84
00:00:43,3.326308,92.08,35.84
00:00:43,3.322468,92.08,35.84
00:00:43,3.316066,92.08,35.84
00:00:43,3.298141,92.08,35.84
00:00:44,3.2943,91.95,35.84
00:00:44,3.295581,91.95,35.84
00:00:44,3.2891790000000003,91.95,35.84
00:00:44,3.290459,91.95,35.84
00:00:45,3.316066,91.8,35.87
00:00:45,3.323748,91.8,35.87
00:00:45,3.325028,91.8,35.87
00:00:45,3.328869,91.8,35.87
00:00:46,3.326308,91.65,35.84
00:00:46,3.328869,91.65,35.84
00:00:46,3.326308,91.65,35.84
00:00:46,3.317346,91.65,35.84
00:00:47,3.3147849999999996,91.5,35.87
00:00:47,3.309664,91.5,35.87
00:00:47,3.3045430000000002,91.5,35.87
00:00:47,3.2994220000000003,91.5,35.87
00:00:48,3.3045430000000002,91.37,35.87
00:00:48,3.323748,91.37,35.87
00:00:48,3.353195,91.37,35.87
00:00:48,3.3877639999999998,91.37,35.87
00:00:49,3.4133709999999997,91.25,35.84
00:00:49,3.4261739999999996,91.25,35.84
00:00:49,3.417212,91.25,35.84
00:00:49,3.412091,91.25,35.84
00:00:50,3.4031279999999997,91.15,35.89
00:00:50,3.4031279999999997,91.15,35.89
00:00:50,3.406969,91.15,35.89
00:00:50,3.4133709999999997,91.15,35.89
00:00:51,3.414651,91.08,35.84
00:00:51,3.4133709999999997,91.08,35.84
00:00:51,3.4056889999999997,91.08,35.84
00:00:51,3.399287,91.08,35.84
00:00:52,3.3877639999999998,91.05,35.87
00:00:52,3.381363,91.05,35.87
00:00:52,3.373681,91.05,35.87
00:00:52,3.368559,91.05,35.87
00:00:53,3.373681,91.03,35.87
00:00:53,3.368559,91.03,35.87
00:00:53,3.360877,91.03,35.87
00:00:53,3.353195,91.03,35.87
00:00:54,3.3378309999999995,91.03,35.89
00:00:54,3.327589,91.03,35.89
00:00:54,3.3301489999999996,91.03,35.89
00:00:54,3.33399,91.03,35.89
00:00:55,3.3378309999999995,91.03,35.84
00:00:55,3.335271,91.03,35.84
00:00:55,3.33399,91.03,35.84
00:00:55,3.33271,91.03,35.84
00:00:56,3.3301489999999996,91.03,35.87
00:00:56,3.327589,91.03,35.87
00:00:56,3.322468,91.03,35.87
00:00:56,3.319907,91.03,35.87
00:00:57,3.321187,91.05,35.87
00:00:57,3.322468,91.05,35.87
00:00:57,3.319907,91.05,35.87
00:00:57,3.317346,91.05,35.87
00:00:58,3.317346,91.08,35.87
00:00:58,3.316066,91.08,35.87
00:00:58,3.313505,91.08,35.87
00:00:58,3.312225,91.08,35.87
00:00:59,3.310945,91.13,35.87
00:00:59,3.305823,91.13,35.87
00:00:59,3.305823,91.13,35.87
00:00:59,3.305823,91.13,35.87
00:01:00,3.305823,91.2,35.87
00:01:00,3.305823,91.2,35.87
00:01:00,3.310945,91.2,35.87
00:01:00,3.305823,91.2,35.87
00:01:01,3.303262,91.28,35.87
00:01:01,3.2968610000000003,91.28,35.87
00:01:01,3.2968610000000003,91.28,35.87
00:01:01,3.290459,91.28,35.87
00:01:02,3.287899,91.37,35.89
00:01:02,3.285338,91.37,35.89
00:01:02,3.285338,91.37,35.89
00:01:02,3.278936,91.37,35.89
00:01:03,3.276376,91.43,35.89
00:01:03,3.2814970000000003,91.43,35.89
00:01:03,3.2699740000000004,91.43,35.89
00:01:03,3.263572,91.43,35.89
00:01:04,3.25461,91.5,35.89
00:01:04,3.248208,91.5,35.89
00:01:04,3.248208,91.5,35.89
00:01:04,3.245648,91.5,35.89
00:01:05,3.25461,91.57,35.89
00:01:05,3.276376,91.57,35.89
00:01:05,3.298141,91.57,35.89
00:01:05,3.316066,91.57,35.89
00:01:06,3.33271,91.63,35.89
00:01:06,3.335271,91.63,35.89
00:01:06,3.3301489999999996,91.63,35.89
00:01:06,3.326308,91.63,35.89
00:01:07,3.313505,91.72,35.89
00:01:07,3.300702,91.72,35.89
00:01:07,3.2891790000000003,91.72,35.89
00:01:07,3.287899,91.72,35.89
00:01:08,3.2943,91.82,35.87
00:01:08,3.316066,91.82,35.87
00:01:08,3.327589,91.82,35.87
00:01:08,3.33271,91.82,35.87
00:01:09,3.33271,91.92,35.89
00:01:09,3.326308,91.92,35.89
00:01:09,3.317346,91.92,35.89
00:01:09,3.3071040000000003,91.92,35.89
00:01:10,3.2968610000000003,92.03,35.87
00:01:10,3.29302,92.03,35.87
00:01:10,3.2840580000000004,92.03,35.87
00:01:10,3.277656,92.03,35.87
00:01:11,3.272535,92.13,35.91
00:01:11,3.268694,92.13,35.91
00:01:11,3.263572,92.13,35.91
00:01:11,3.262292,92.13,35.91
00:01:12,3.25589,92.23,35.84
00:01:12,3.25333,92.23,35.84
00:01:12,3.250769,92.23,35.84
00:01:12,3.25461,92.23,35.84
00:01:13,3.259731,92.35,35.89
00:01:13,3.268694,92.35,35.89
00:01:13,3.2699740000000004,92.35,35.89
00:01:13,3.2699740000000004,92.35,35.89
00:01:14,3.263572,92.47,35.87
00:01:14,3.257171,92.47,35.87
00:01:14,3.249489,92.47,35.87
00:01:14,3.241807,92.47,35.87
00:01:15,3.237966,92.58,35.87
00:01:15,3.234125,92.58,35.87
00:01:15,3.229003,92.58,35.87
00:01:15,3.222602,92.58,35.87
00:01:16,3.2213220000000002,92.7,35.89
00:01:16,3.222602,92.7,35.89
00:01:16,3.21748,92.7,35.89
00:01:16,3.2162,92.7,35.89
00:01:17,3.213639,92.82,35.89
00:01:17,3.2097990000000003,92.82,35.89
00:01:17,3.208518,92.82,35.89
00:01:17,3.2097990000000003,92.82,35.89
00:01:18,3.208518,92.92,35.87
00:01:18,3.208518,92.92,35.87
00:01:18,3.2097990000000003,92.92,35.87
00:01:18,3.208518,92.92,35.87
00:01:19,3.208518,93.03,35.89
00:01:19,3.2072380000000003,93.03,35.89
00:01:19,3.2008360000000002,93.03,35.89
00:01:19,3.202116,93.03,35.89
00:01:20,3.2072380000000003,93.15,35.89
00:01:20,3.204677,93.15,35.89
00:01:20,3.212359,93.15,35.89
00:01:20,3.202116,93.15,35.89
00:01:21,3.2059580000000003,93.28,35.87
00:01:21,3.1995560000000003,93.28,35.87
00:01:21,3.2008360000000002,93.28,35.87
00:01:21,3.194435,93.28,35.87
00:01:22,3.1969950000000003,93.4,35.87
00:01:22,3.1931540000000003,93.4,35.87
00:01:22,3.1854720000000003,93.4,35.87
00:01:22,3.186753,93.4,35.87
00:01:23,3.182912,93.52,35.89
00:01:23,3.182912,93.52,35.89
00:01:23,3.1816310000000003,93.52,35.89
00:01:23,3.180351,93.52,35.89
00:01:24,3.1777900000000003,93.63,35.87
00:01:24,3.1816310000000003,93.63,35.87
00:01:24,3.17651,93.63,35.87
00:01:24,3.172669,93.63,35.87
00:01:25,3.172669,93.73,35.87
00:01:25,3.172669,93.73,35.87
00:01:25,3.168828,93.73,35.87
00:01:25,3.164987,93.73,35.87
00:01:26,3.158585,93.85,35.91
00:01:26,3.156025,93.85,35.91
00:01:26,3.153464,93.85,35.91
00:01:26,3.157305,93.85,35.91
00:01:27,3.159866,93.95,35.91
00:01:27,3.157305,93.95,35.91
00:01:27,3.154744,93.95,35.91
00:01:27,3.154744,93.95,35.91
00:01:28,3.152184,94.05,35.89
00:01:28,3.149623,94.05,35.89
00:01:28,3.150903,94.05,35.89
00:01:28,3.147063,94.05,35.89
00:01:29,3.143221,94.13,35.89
00:01:29,3.144502,94.13,35.89
00:01:29,3.143221,94.13,35.89
00:01:29,3.143221,94.13,35.89
00:01:30,3.141941,94.23,35.91
00:01:30,3.140661,94.23,35.91
00:01:30,3.13938,94.23,35.91
00:01:30,3.1381,94.23,35.91
00:01:31,3.1381,94.32,35.91
00:01:31,3.13554,94.32,35.91
00:01:31,3.132979,94.32,35.91
00:01:31,3.126577,94.32,35.91
00:01:32,3.132979,94.38,35.89
00:01:32,3.126577,94.38,35.89
00:01:32,3.127857,94.38,35.89
00:01:32,3.126577,94.38,35.89
00:01:33,3.122736,94.43,35.91
00:01:33,3.1214560000000002,94.43,35.91
00:01:33,3.120176,94.43,35.91
00:01:33,3.1214560000000002,94.43,35.91
00:01:34,3.116334,94.47,35.91
00:01:34,3.120176,94.47,35.91
00:01:34,3.1137740000000003,94.47,35.91
00:01:34,3.1112130000000002,94.47,35.91
00:01:35,3.108653,94.5,35.87
00:01:35,3.1112130000000002,94.5,35.87
00:01:35,3.1112130000000002,94.5,35.87
00:01:35,3.1112130000000002,94.5,35.87
00:01:36,3.1112130000000002,94.53,35.89
00:01:36,3.118895,94.53,35.89
00:01:36,3.13682,94.53,35.89
00:01:36,3.148343,94.53,35.89
00:01:37,3.153464,94.58,35.91
00:01:37,3.156025,94.58,35.91
00:01:37,3.150903,94.58,35.91
00:01:37,3.145782,94.58,35.91
00:01:38,3.1381,94.65,35.93
00:01:38,3.13554,94.65,35.93
00:01:38,3.126577,94.65,35.93
00:01:38,3.122736,94.65,35.93
00:01:39,3.1176150000000002,94.72,35.89
00:01:39,3.115054,94.72,35.89
00:01:39,3.1112130000000002,94.72,35.89
00:01:39,3.1099330000000003,94.72,35.89
00:01:40,3.106092,94.8,35.91
00:01:40,3.1073720000000002,94.8,35.91
00:01:40,3.106092,94.8,35.91
00:01:40,3.0996900000000003,94.8,35.91
00:01:41,3.09841,94.92,35.89
00:01:41,3.09713,94.92,35.89
00:01:41,3.094569,94.92,35.89
00:01:41,3.093289,94.92,35.89
00:01:42,3.090728,95.03,35.89
00:01:42,3.0920080000000003,95.03,35.89
00:01:42,3.094569,95.03,35.89
00:01:42,3.086887,95.03,35.89
00:01:43,3.088167,95.17,35.91
00:01:43,3.084326,95.17,35.91
00:01:43,3.081766,95.17,35.91
00:01:43,3.083046,95.17,35.91
00:01:44,3.076644,95.32,35.91
00:01:44,3.079205,95.32,35.91
00:01:44,3.079205,95.32,35.91
00:01:44,3.081766,95.32,35.91
00:01:45,3.083046,95.48,35.89
00:01:45,3.086887,95.48,35.89
00:01:45,3.0920080000000003,95.48,35.89
00:01:45,3.093289,95.48,35.89
00:01:46,3.09713,95.63,35.91
00:01:46,3.1035310000000003,95.63,35.91
00:01:46,3.1073720000000002,95.63,35.91
00:01:46,3.108653,95.63,35.91
00:01:47,3.104812,95.8,35.89
00:01:47,3.1073720000000002,95.8,35.89
00:01:47,3.102251,95.8,35.89
00:01:47,3.100971,95.8,35.89
00:01:48,3.09841,95.97,35.91
00:01:48,3.09841,95.97,35.91
00:01:48,3.093289,95.97,35.91
00:01:48,3.0958490000000003,95.97,35.91
00:01:49,3.104812,96.13,35.91
00:01:49,3.124017,96.13,35.91
00:01:49,3.144502,96.13,35.91
00:01:49,3.166267,96.13,35.91
00:01:50,3.179071,96.3,35.89
00:01:50,3.184192,96.3,35.89
00:01:50,3.182912,96.3,35.89
00:01:50,3.172669,96.3,35.89
00:01:51,3.162426,96.45,35.89
00:01:51,3.153464,96.45,35.89
00:01:51,3.143221,96.45,35.89
00:01:51,3.13554,96.45,35.89
00:01:52,3.126577,96.58,35.89
00:01:52,3.124017,96.58,35.89
00:01:52,3.124017,96.58,35.89
00:01:52,3.124017,96.58,35.89
00:01:53,3.130418,96.68,35.89
00:01:53,3.13682,96.68,35.89
00:01:53,3.13938,96.68,35.89
00:01:53,3.1381,96.68,35.89
00:01:54,3.13682,96.77,35.89
00:01:54,3.134259,96.77,35.89
