TIME,EDA,HR,TEMP
11:02:53,1.6846720000000002,63.0,33.79
11:02:53,2.100879,63.0,33.79
11:02:53,2.228942,63.0,33.79
11:02:53,2.2763259999999996,63.0,33.79
11:02:54,2.2916939999999997,86.0,33.81
11:02:54,2.2763259999999996,86.0,33.81
11:02:54,2.272484,86.0,33.81
11:02:54,2.2763259999999996,86.0,33.81
11:02:55,2.290413,85.0,33.79
11:02:55,2.331393,85.0,33.79
11:02:55,2.3595669999999997,85.0,33.79
11:02:55,2.3442,85.0,33.79
11:02:56,2.337797,85.0,33.83
11:02:56,2.335235,85.0,33.83
11:02:56,2.318587,85.0,33.83
11:02:56,2.318587,85.0,33.83
11:02:57,2.3262709999999998,78.8,33.87
11:02:57,2.3237099999999997,78.8,33.87
11:02:57,2.319868,78.8,33.87
11:02:57,2.312184,78.8,33.87
11:02:58,2.327552,76.5,33.87
11:02:58,2.341639,76.5,33.87
11:02:58,2.3326740000000004,76.5,33.87
11:02:58,2.322429,76.5,33.87
11:02:59,2.321148,74.71,33.87
11:02:59,2.321148,74.71,33.87
11:02:59,2.317307,74.71,33.87
11:02:59,2.316026,74.71,33.87
11:03:00,2.3109029999999997,75.0,33.87
11:03:00,2.307061,75.0,33.87
11:03:00,2.30322,75.0,33.87
11:03:00,2.30322,75.0,33.87
11:03:01,2.305781,75.33,33.89
11:03:01,2.305781,75.33,33.89
11:03:01,2.301939,75.33,33.89
11:03:01,2.296816,75.33,33.89
11:03:02,2.2942549999999997,75.3,33.87
11:03:02,2.292974,75.3,33.87
11:03:02,2.292974,75.3,33.87
11:03:02,2.2916939999999997,75.3,33.87
11:03:03,2.2916939999999997,75.0,33.89
11:03:03,2.2852900000000003,75.0,33.89
11:03:03,2.290413,75.0,33.89
11:03:03,2.2763259999999996,75.0,33.89
11:03:04,2.2827290000000002,74.83,33.89
11:03:04,2.28401,74.83,33.89
11:03:04,2.290413,74.83,33.89
11:03:04,2.2916939999999997,74.83,33.89
11:03:05,2.2916939999999997,74.69,33.91
11:03:05,2.2942549999999997,74.69,33.91
11:03:05,2.2993770000000002,74.69,33.91
11:03:05,2.3045,74.69,33.91
11:03:06,2.3006580000000003,74.57,33.87
11:03:06,2.3006580000000003,74.57,33.87
11:03:06,2.301939,74.57,33.87
11:03:06,2.296816,74.57,33.87
11:03:07,2.2916939999999997,74.53,33.89
11:03:07,2.286571,74.53,33.89
11:03:07,2.286571,74.53,33.89
11:03:07,2.289132,74.53,33.89
11:03:08,2.2955360000000002,75.5,33.91
11:03:08,2.305781,75.5,33.91
11:03:08,2.321148,75.5,33.91
11:03:08,2.3442,75.5,33.91
11:03:09,2.36469,76.24,33.89
11:03:09,2.376216,76.24,33.89
11:03:09,2.378777,76.24,33.89
11:03:09,2.378777,76.24,33.89
11:03:10,2.400548,76.72,33.91
11:03:10,2.400548,76.72,33.91
11:03:10,2.403109,76.72,33.91
11:03:10,2.406951,76.72,33.91
11:03:11,2.409512,77.0,33.89
11:03:11,2.415915,77.0,33.89
11:03:11,2.410793,77.0,33.89
11:03:11,2.413354,77.0,33.89
11:03:12,2.408232,77.4,33.89
11:03:12,2.40567,77.4,33.89
11:03:12,2.4043900000000002,77.4,33.89
11:03:12,2.4043900000000002,77.4,33.89
11:03:13,2.4043900000000002,77.57,33.89
11:03:13,2.406951,77.57,33.89
11:03:13,2.408232,77.57,33.89
11:03:13,2.417196,77.57,33.89
11:03:14,2.412074,77.82,33.89
11:03:14,2.406951,77.82,33.89
11:03:14,2.4043900000000002,77.82,33.89
11:03:14,2.400548,77.82,33.89
11:03:15,2.397987,78.13,33.91
11:03:15,2.4043900000000002,78.13,33.91
11:03:15,2.412074,78.13,33.91
11:03:15,2.428722,78.13,33.91
11:03:16,2.440248,78.46,33.87
11:03:16,2.459517,78.46,33.87
11:03:16,2.4672009999999998,78.46,33.87
11:03:16,2.476165,78.46,33.87
11:03:17,2.480007,78.8,33.87
11:03:17,2.491533,78.8,33.87
11:03:17,2.494094,78.8,33.87
11:03:17,2.492814,78.8,33.87
11:03:18,2.496655,79.15,33.89
11:03:18,2.496655,79.15,33.89
11:03:18,2.487691,79.15,33.89
11:03:18,2.48641,79.15,33.89
11:03:19,2.48513,79.52,33.89
11:03:19,2.482569,79.52,33.89
11:03:19,2.478727,79.52,33.89
11:03:19,2.474885,79.52,33.89
11:03:20,2.471043,79.86,33.87
11:03:20,2.472323,79.86,33.87
11:03:20,2.472323,79.86,33.87
11:03:20,2.476165,79.86,33.87
11:03:21,2.476165,80.17,33.89
11:03:21,2.491533,80.17,33.89
11:03:21,2.50562,80.17,33.89
11:03:21,2.517146,80.17,33.89
11:03:22,2.5325130000000002,80.47,33.89
11:03:22,2.542758,80.47,33.89
11:03:22,2.551723,80.47,33.89
11:03:22,2.553004,80.47,33.89
11:03:23,2.549162,80.74,33.87
11:03:23,2.549162,80.74,33.87
11:03:23,2.5453200000000002,80.74,33.87
11:03:23,2.542758,80.74,33.87
11:03:24,2.533794,80.97,33.89
11:03:24,2.529952,80.97,33.89
11:03:24,2.520988,80.97,33.89
11:03:24,2.520988,80.97,33.89
11:03:25,2.520988,81.15,33.89
11:03:25,2.519707,81.15,33.89
11:03:25,2.508181,81.15,33.89
11:03:25,2.488972,81.15,33.89
11:03:26,2.447991,81.32,33.89
11:03:26,2.4121330000000003,81.32,33.89
11:03:26,2.4415880000000003,81.32,33.89
11:03:26,2.455675,81.32,33.89
11:03:27,2.46592,81.49,33.91
11:03:27,2.46464,81.49,33.91
11:03:27,2.463359,81.49,33.91
11:03:27,2.4672009999999998,81.49,33.91
11:03:28,2.462078,81.58,33.87
11:03:28,2.458236,81.58,33.87
11:03:28,2.449272,81.58,33.87
11:03:28,2.451833,81.58,33.87
11:03:29,2.4236590000000002,81.68,33.89
11:03:29,2.336576,81.68,33.89
11:03:29,2.381398,81.68,33.89
11:03:29,2.386521,81.68,33.89
11:03:30,2.3839599999999996,81.79,33.89
11:03:30,2.382679,81.79,33.89
11:03:30,2.380118,81.79,33.89
11:03:30,2.378837,81.79,33.89
11:03:31,2.380118,81.97,33.89
11:03:31,2.389082,81.97,33.89
11:03:31,2.4095720000000003,81.97,33.89
11:03:31,2.428782,81.97,33.89
11:03:32,2.4351849999999997,82.15,33.89
11:03:32,2.4377459999999997,82.15,33.89
11:03:32,2.4441490000000003,82.15,33.89
11:03:32,2.44543,82.15,33.89
11:03:33,2.447991,82.32,33.89
11:03:33,2.44543,82.32,33.89
11:03:33,2.442869,82.32,33.89
11:03:33,2.44543,82.32,33.89
11:03:34,2.433904,82.5,33.87
11:03:34,2.4403080000000004,82.5,33.87
11:03:34,2.4249400000000003,82.5,33.87
11:03:34,2.415975,82.5,33.87
11:03:35,2.413414,82.67,33.84
11:03:35,2.4070110000000002,82.67,33.84
11:03:35,2.398046,82.67,33.84
11:03:35,2.395485,82.67,33.84
11:03:36,2.391643,82.84,33.87
11:03:36,2.3903630000000002,82.84,33.87
11:03:36,2.382679,82.84,33.87
11:03:36,2.381398,82.84,33.87
11:03:37,2.372434,83.04,33.89
11:03:37,2.366031,83.04,33.89
11:03:37,2.3609080000000002,83.04,33.89
11:03:37,2.359627,83.04,33.89
11:03:38,2.354505,83.24,33.84
11:03:38,2.349382,83.24,33.84
11:03:38,2.340418,83.24,33.84
11:03:38,2.342979,83.24,33.84
11:03:39,2.339137,83.45,33.87
11:03:39,2.335295,83.45,33.87
11:03:39,2.330173,83.45,33.87
11:03:39,2.330173,83.45,33.87
11:03:40,2.327611,83.65,33.84
11:03:40,2.326331,83.65,33.84
11:03:40,2.3212080000000004,83.65,33.84
11:03:40,2.317366,83.65,33.84
11:03:41,2.314805,83.88,33.87
11:03:41,2.313524,83.88,33.87
11:03:41,2.313524,83.88,33.87
11:03:41,2.307121,83.88,33.87
11:03:42,2.30456,84.08,33.84
11:03:42,2.307121,84.08,33.84
11:03:42,2.318647,84.08,33.84
11:03:42,2.340418,84.08,33.84
11:03:43,2.368592,84.27,33.87
11:03:43,2.3903630000000002,84.27,33.87
11:03:43,2.417256,84.27,33.87
11:03:43,2.4236590000000002,84.27,33.87
11:03:44,2.430063,84.44,33.87
11:03:44,2.4403080000000004,84.44,33.87
11:03:44,2.4505529999999998,84.44,33.87
11:03:44,2.459517,84.44,33.87
11:03:45,2.469762,84.6,33.84
11:03:45,2.48513,84.6,33.84
11:03:45,2.490252,84.6,33.84
11:03:45,2.504339,84.6,33.84
11:03:46,2.513304,84.74,33.87
11:03:46,2.5158650000000002,84.74,33.87
11:03:46,2.520988,84.74,33.87
11:03:46,2.514585,84.74,33.87
11:03:47,2.506901,84.85,33.84
11:03:47,2.492814,84.85,33.84
11:03:47,2.482569,84.85,33.84
11:03:47,2.476165,84.85,33.84
11:03:48,2.46464,84.95,33.87
11:03:48,2.462078,84.95,33.87
11:03:48,2.460798,84.95,33.87
11:03:48,2.460798,84.95,33.87
11:03:49,2.456956,85.02,33.84
11:03:49,2.455675,85.02,33.84
11:03:49,2.449272,85.02,33.84
11:03:49,2.446711,85.02,33.84
11:03:50,2.4403080000000004,85.05,33.84
11:03:50,2.449272,85.05,33.84
11:03:50,2.449272,85.05,33.84
11:03:50,2.455675,85.05,33.84
11:03:51,2.456956,85.07,33.83
11:03:51,2.458236,85.07,33.83
11:03:51,2.456956,85.07,33.83
11:03:51,2.451833,85.07,33.83
11:03:52,2.44543,85.07,33.83
11:03:52,2.433904,85.07,33.83
11:03:52,2.430063,85.07,33.83
11:03:52,2.4262200000000003,85.07,33.83
11:03:53,2.432624,85.42,33.83
11:03:53,2.4403080000000004,85.42,33.83
11:03:53,2.451833,85.42,33.83
11:03:53,2.462078,85.42,33.83
11:03:54,2.473604,85.02,33.83
11:03:54,2.482569,85.02,33.83
11:03:54,2.482569,85.02,33.83
11:03:54,2.48641,85.02,33.83
11:03:55,2.488972,85.03,33.84
11:03:55,2.491533,85.03,33.84
11:03:55,2.490252,85.03,33.84
11:03:55,2.501778,85.03,33.84
11:03:56,2.506901,85.02,33.83
11:03:56,2.518426,85.02,33.83
11:03:56,2.523549,85.02,33.83
11:03:56,2.522268,85.02,33.83
11:03:57,2.5261099999999996,85.5,33.81
11:03:57,2.520988,85.5,33.81
11:03:57,2.514585,85.5,33.81
11:03:57,2.5261099999999996,85.5,33.81
11:03:58,2.536355,85.82,33.84
11:03:58,2.556845,85.82,33.84
11:03:58,2.56581,85.82,33.84
11:03:58,2.570933,85.82,33.84
11:03:59,2.570933,86.17,33.83
11:03:59,2.567091,86.17,33.83
11:03:59,2.5594069999999998,86.17,33.83
11:03:59,2.5581259999999997,86.17,33.83
11:04:00,2.567091,86.3,33.81
11:04:00,2.578616,86.3,33.81
11:04:00,2.591423,86.3,33.81
11:04:00,2.604229,86.3,33.81
11:04:01,2.611913,86.45,33.79
11:04:01,2.615755,86.45,33.79
11:04:01,2.610632,86.45,33.79
11:04:01,2.602948,86.45,33.79
11:04:02,2.5863,86.63,33.83
11:04:02,2.574775,86.63,33.83
11:04:02,2.5594069999999998,86.63,33.83
11:04:02,2.5478810000000003,86.63,33.83
11:04:03,2.5414779999999997,86.87,33.81
11:04:03,2.529952,86.87,33.81
11:04:03,2.5286720000000003,86.87,33.81
11:04:03,2.523549,86.87,33.81
11:04:04,2.512023,87.08,33.81
11:04:04,2.506901,87.08,33.81
11:04:04,2.499217,87.08,33.81
11:04:04,2.494094,87.08,33.81
11:04:05,2.494094,87.32,33.81
11:04:05,2.491533,87.32,33.81
11:04:05,2.490252,87.32,33.81
11:04:05,2.494094,87.32,33.81
11:04:06,2.494094,87.55,33.79
11:04:06,2.495375,87.55,33.79
11:04:06,2.492814,87.55,33.79
11:04:06,2.491533,87.55,33.79
11:04:07,2.48513,87.78,33.79
11:04:07,2.483849,87.78,33.79
11:04:07,2.481288,87.78,33.79
11:04:07,2.477446,87.78,33.79
11:04:08,2.471043,87.77,33.81
11:04:08,2.476165,87.77,33.81
11:04:08,2.480007,87.77,33.81
11:04:08,2.488972,87.77,33.81
11:04:09,2.503059,87.8,33.79
11:04:09,2.510743,87.8,33.79
11:04:09,2.522268,87.8,33.79
11:04:09,2.5261099999999996,87.8,33.79
11:04:10,2.5325130000000002,87.87,33.79
11:04:10,2.5286720000000003,87.87,33.79
11:04:10,2.5261099999999996,87.87,33.79
11:04:10,2.520988,87.87,33.79
11:04:11,2.517146,87.98,33.81
11:04:11,2.513304,87.98,33.81
11:04:11,2.513304,87.98,33.81
11:04:11,2.517146,87.98,33.81
11:04:12,2.517146,88.03,33.79
11:04:12,2.527391,88.03,33.79
11:04:12,2.542758,88.03,33.79
11:04:12,2.555565,88.03,33.79
11:04:13,2.572213,88.13,33.79
11:04:13,2.588861,88.13,33.79
11:04:13,2.601668,88.13,33.79
11:04:13,2.615755,88.13,33.79
11:04:14,2.628561,88.18,33.79
11:04:14,2.628561,88.18,33.79
11:04:14,2.631122,88.18,33.79
11:04:14,2.638806,88.18,33.79
11:04:15,2.647771,88.22,33.79
11:04:15,2.661858,88.22,33.79
11:04:15,2.668261,88.22,33.79
11:04:15,2.6708220000000003,88.22,33.79
11:04:16,2.669542,88.23,33.77
11:04:16,2.6708220000000003,88.23,33.77
11:04:16,2.655455,88.23,33.77
11:04:16,2.642648,88.23,33.77
11:04:17,2.626,88.23,33.77
11:04:17,2.613194,88.23,33.77
11:04:17,2.6055099999999998,88.23,33.77
11:04:17,2.591423,88.23,33.77
11:04:18,2.5824580000000004,88.22,33.77
11:04:18,2.5760549999999998,88.22,33.77
11:04:18,2.570933,88.22,33.77
11:04:18,2.574775,88.22,33.77
11:04:19,2.570933,88.18,33.79
11:04:19,2.5734939999999997,88.18,33.79
11:04:19,2.568371,88.18,33.79
11:04:19,2.567091,88.18,33.79
11:04:20,2.567091,88.13,33.77
11:04:20,2.5606869999999997,88.13,33.77
11:04:20,2.5581259999999997,88.13,33.77
11:04:20,2.553004,88.13,33.77
11:04:21,2.5478810000000003,88.1,33.77
11:04:21,2.542758,88.1,33.77
11:04:21,2.5453200000000002,88.1,33.77
11:04:21,2.549162,88.1,33.77
11:04:22,2.551723,88.07,33.77
11:04:22,2.554284,88.07,33.77
11:04:22,2.553004,88.07,33.77
11:04:22,2.5632490000000003,88.07,33.77
11:04:23,2.5594069999999998,88.05,33.75
11:04:23,2.5619680000000002,88.05,33.75
11:04:23,2.5606869999999997,88.05,33.75
11:04:23,2.5606869999999997,88.05,33.75
11:04:24,2.554284,88.05,33.75
11:04:24,2.554284,88.05,33.75
11:04:24,2.5466,88.05,33.75
11:04:24,2.542758,88.05,33.75
11:04:25,2.540197,88.07,33.75
11:04:25,2.540197,88.07,33.75
11:04:25,2.5414779999999997,88.07,33.75
11:04:25,2.5414779999999997,88.07,33.75
11:04:26,2.555565,88.07,33.77
11:04:26,2.578616,88.07,33.77
11:04:26,2.5901419999999997,88.07,33.77
11:04:26,2.595265,88.07,33.77
11:04:27,2.596545,88.07,33.77
11:04:27,2.591423,88.07,33.77
11:04:27,2.5901419999999997,88.07,33.77
11:04:27,2.587581,88.07,33.77
11:04:28,2.5927029999999998,88.08,33.75
11:04:28,2.613194,88.08,33.75
11:04:28,2.650332,88.08,33.75
11:04:28,2.693874,88.08,33.75
11:04:29,2.732293,88.1,33.75
11:04:29,2.763028,88.1,33.75
11:04:29,2.769431,88.1,33.75
11:04:29,2.76687,88.1,33.75
11:04:30,2.759186,88.07,33.73
11:04:30,2.752783,88.07,33.73
11:04:30,2.755344,88.07,33.73
11:04:30,2.770712,88.07,33.73
11:04:31,2.78608,87.98,33.73
11:04:31,2.805289,87.98,33.73
11:04:31,2.8091310000000003,87.98,33.73
11:04:31,2.804008,87.98,33.73
11:04:32,2.8001669999999996,87.9,33.73
11:04:32,2.78736,87.9,33.73
11:04:32,2.782238,87.9,33.73
11:04:32,2.804008,87.9,33.73
11:04:33,2.832182,87.82,33.75
11:04:33,2.860357,87.82,33.75
11:04:33,2.891092,87.82,33.75
11:04:33,2.905179,87.82,33.75
11:04:34,2.902617,87.72,33.73
11:04:34,2.891092,87.72,33.73
11:04:34,2.86804,87.72,33.73
11:04:34,2.844989,87.72,33.73
11:04:35,2.8219369999999997,87.62,33.73
11:04:35,2.815534,87.62,33.73
11:04:35,2.820657,87.62,33.73
11:04:35,2.836024,87.62,33.73
11:04:36,2.8437080000000003,87.5,33.73
11:04:36,2.852673,87.5,33.73
11:04:36,2.850111,87.5,33.73
11:04:36,2.8373049999999997,87.5,33.73
11:04:37,2.820657,87.35,33.71
11:04:37,2.8001669999999996,87.35,33.71
11:04:37,2.782238,87.35,33.71
11:04:37,2.765589,87.35,33.71
11:04:38,2.745099,87.2,33.71
11:04:38,2.733573,87.2,33.71
11:04:38,2.723328,87.2,33.71
11:04:38,2.716925,87.2,33.71
11:04:39,2.7143639999999998,87.05,33.73
11:04:39,2.707961,87.05,33.73
11:04:39,2.70668,87.05,33.73
11:04:39,2.707961,87.05,33.73
11:04:40,2.7143639999999998,86.92,33.73
11:04:40,2.7182060000000003,86.92,33.73
11:04:40,2.719486,86.92,33.73
11:04:40,2.716925,86.92,33.73
11:04:41,2.713083,86.77,33.71
11:04:41,2.711802,86.77,33.71
11:04:41,2.7054,86.77,33.71
11:04:41,2.6989959999999997,86.77,33.71
11:04:42,2.697716,86.63,33.71
11:04:42,2.7002770000000003,86.63,33.71
11:04:42,2.697716,86.63,33.71
11:04:42,2.697716,86.63,33.71
11:04:43,2.692593,86.48,33.71
11:04:43,2.6874700000000002,86.48,33.71
11:04:43,2.690032,86.48,33.71
11:04:43,2.6836290000000003,86.48,33.71
11:04:44,2.6810669999999996,86.35,33.68
11:04:44,2.6797869999999997,86.35,33.68
11:04:44,2.6797869999999997,86.35,33.68
11:04:44,2.688751,86.35,33.68
11:04:45,2.7028380000000003,86.2,33.71
11:04:45,2.736135,86.2,33.71
11:04:45,2.774554,86.2,33.71
11:04:45,2.810412,86.2,33.71
11:04:46,2.8424270000000003,86.08,33.68
11:04:46,2.859076,86.08,33.68
11:04:46,2.86804,86.08,33.68
11:04:46,2.869321,86.08,33.68
11:04:47,2.869321,85.98,33.66
11:04:47,2.865479,85.98,33.66
11:04:47,2.864198,85.98,33.66
11:04:47,2.864198,85.98,33.66
11:04:48,2.8539529999999997,85.92,33.71
11:04:48,2.8424270000000003,85.92,33.71
11:04:48,2.833463,85.92,33.71
11:04:48,2.8193759999999997,85.92,33.71
11:04:49,2.815534,85.85,33.68
11:04:49,2.82706,85.85,33.68
11:04:49,2.852673,85.85,33.68
11:04:49,2.883408,85.85,33.68
11:04:50,2.910301,85.82,33.68
11:04:50,2.929511,85.82,33.68
11:04:50,2.937195,85.82,33.68
11:04:50,2.938606,85.82,33.68
11:04:51,2.928361,85.8,33.68
11:04:51,2.911712,85.8,33.68
11:04:51,2.889942,85.8,33.68
11:04:51,2.873293,85.8,33.68
11:04:52,2.854084,85.8,33.68
11:04:52,2.847681,85.8,33.68
11:04:52,2.857926,85.8,33.68
11:04:52,2.879697,85.8,33.68
11:04:53,2.907871,85.82,33.65
11:04:53,2.928361,85.82,33.65
11:04:53,2.945009,85.82,33.65
11:04:53,2.9462900000000003,85.82,33.65
11:04:54,2.948851,85.83,33.68
11:04:54,2.936044,85.83,33.68
11:04:54,2.918116,85.83,33.68
11:04:54,2.900187,85.83,33.68
11:04:55,2.883538,85.87,33.66
11:04:55,2.880977,85.87,33.66
11:04:55,2.874574,85.87,33.66
11:04:55,2.864329,85.87,33.66
11:04:56,2.855364,85.92,33.71
11:04:56,2.845119,85.92,33.71
11:04:56,2.8374349999999997,85.92,33.71
11:04:56,2.832313,85.92,33.71
11:04:57,2.828471,85.98,33.68
11:04:57,2.8246290000000003,85.98,33.68
11:04:57,2.816945,85.98,33.68
11:04:57,2.811823,85.98,33.68
11:04:58,2.8054189999999997,86.02,33.68
11:04:58,2.8054189999999997,86.02,33.68
11:04:58,2.7951740000000003,86.02,33.68
11:04:58,2.797736,86.02,33.68
11:04:59,2.7951740000000003,86.03,33.66
11:04:59,2.790052,86.03,33.66
11:04:59,2.783649,86.03,33.66
11:04:59,2.782368,86.03,33.66
11:05:00,2.779807,86.05,33.66
11:05:00,2.779807,86.05,33.66
11:05:00,2.7759650000000002,86.05,33.66
11:05:00,2.769562,86.05,33.66
11:05:01,2.767,86.05,33.68
11:05:01,2.770842,86.05,33.68
11:05:01,2.764439,86.05,33.68
11:05:01,2.763159,86.05,33.68
11:05:02,2.764439,86.07,33.68
11:05:02,2.768281,86.07,33.68
11:05:02,2.772123,86.07,33.68
11:05:02,2.777246,86.07,33.68
11:05:03,2.779807,86.1,33.68
11:05:03,2.790052,86.1,33.68
11:05:03,2.799016,86.1,33.68
11:05:03,2.813103,86.1,33.68
11:05:04,2.831032,86.13,33.68
11:05:04,2.838716,86.13,33.68
11:05:04,2.8464,86.13,33.68
11:05:04,2.8464,86.13,33.68
11:05:05,2.848961,86.17,33.68
11:05:05,2.8425580000000004,86.17,33.68
11:05:05,2.838716,86.17,33.68
11:05:05,2.8233490000000003,86.17,33.68
11:05:06,2.8195069999999998,86.18,33.66
11:05:06,2.809262,86.18,33.66
11:05:06,2.8015779999999997,86.18,33.66
11:05:06,2.8015779999999997,86.18,33.66
11:05:07,2.791332,86.18,33.68
11:05:07,2.7926130000000002,86.18,33.68
11:05:07,2.78621,86.18,33.68
11:05:07,2.787491,86.18,33.68
11:05:08,2.790052,86.17,33.68
11:05:08,2.7951740000000003,86.17,33.68
11:05:08,2.797736,86.17,33.68
11:05:08,2.790052,86.17,33.68
11:05:09,2.790052,86.13,33.68
11:05:09,2.796455,86.13,33.68
11:05:09,2.799016,86.13,33.68
11:05:09,2.797736,86.13,33.68
11:05:10,2.7951740000000003,86.13,33.66
11:05:10,2.8015779999999997,86.13,33.66
11:05:10,2.814384,86.13,33.66
11:05:10,2.831032,86.13,33.66
11:05:11,2.841277,86.13,33.68
11:05:11,2.860487,86.13,33.68
11:05:11,2.873293,86.13,33.68
11:05:11,2.888661,86.13,33.68
11:05:12,2.898906,86.13,33.68
11:05:12,2.902748,86.13,33.68
11:05:12,2.897625,86.13,33.68
11:05:12,2.895064,86.13,33.68
11:05:13,2.8861,86.15,33.68
11:05:13,2.878416,86.15,33.68
11:05:13,2.8694509999999998,86.15,33.68
11:05:13,2.865609,86.15,33.68
11:05:14,2.851522,86.17,33.68
11:05:14,2.845119,86.17,33.68
11:05:14,2.8361549999999998,86.17,33.68
11:05:14,2.831032,86.17,33.68
11:05:15,2.831032,86.18,33.68
11:05:15,2.8233490000000003,86.18,33.68
11:05:15,2.816945,86.18,33.68
11:05:15,2.815665,86.18,33.68
11:05:16,2.813103,86.2,33.66
11:05:16,2.810542,86.2,33.66
11:05:16,2.802858,86.2,33.66
11:05:16,2.8015779999999997,86.2,33.66
11:05:17,2.8015779999999997,86.23,33.66
11:05:17,2.799016,86.23,33.66
11:05:17,2.797736,86.23,33.66
11:05:17,2.8054189999999997,86.23,33.66
11:05:18,2.816945,86.25,33.71
11:05:18,2.841277,86.25,33.71
11:05:18,2.861768,86.25,33.71
11:05:18,2.877135,86.25,33.71
11:05:19,2.8861,86.27,33.71
11:05:19,2.889942,86.27,33.71
11:05:19,2.889942,86.27,33.71
11:05:19,2.882258,86.27,33.71
11:05:20,2.875854,86.28,33.66
11:05:20,2.883538,86.28,33.66
11:05:20,2.898906,86.28,33.66
11:05:20,2.9411669999999996,86.28,33.66
11:05:21,2.997515,86.3,33.71
11:05:21,3.0525830000000003,86.3,33.71
11:05:21,3.10765,86.3,33.71
11:05:21,3.142227,86.3,33.71
11:05:22,3.152472,86.35,33.71
11:05:22,3.165278,86.35,33.71
11:05:22,3.151191,86.35,33.71
11:05:22,3.121737,86.35,33.71
11:05:23,3.092282,86.35,33.68
11:05:23,3.057705,86.35,33.68
11:05:23,3.039776,86.35,33.68
11:05:23,3.018005,86.35,33.68
11:05:24,3.010321,86.42,33.71
11:05:24,3.001357,86.42,33.71
11:05:24,3.001357,86.42,33.71
11:05:24,2.997515,86.42,33.71
11:05:25,2.997515,86.45,33.71
11:05:25,2.9911119999999998,86.45,33.71
11:05:25,2.9821470000000003,86.45,33.71
11:05:25,2.969341,86.45,33.71
11:05:26,2.9629380000000003,86.55,33.68
11:05:26,2.953974,86.55,33.68
11:05:26,2.9411669999999996,86.55,33.68
11:05:26,2.936044,86.55,33.68
11:05:27,2.929641,86.68,33.66
11:05:27,2.925799,86.68,33.66
11:05:27,2.923238,86.68,33.66
11:05:27,2.920677,86.68,33.66
11:05:28,2.928361,86.85,33.68
11:05:28,2.938606,86.85,33.68
11:05:28,2.953974,86.85,33.68
11:05:28,2.9654990000000003,86.85,33.68
11:05:29,2.973183,87.02,33.68
11:05:29,2.9757439999999997,87.02,33.68
11:05:29,2.96806,87.02,33.68
11:05:29,2.9565349999999997,87.02,33.68
11:05:30,2.9462900000000003,87.27,33.68
11:05:30,2.9411669999999996,87.27,33.68
11:05:30,2.937325,87.27,33.68
11:05:30,2.9334830000000003,87.27,33.68
11:05:31,2.921957,87.53,33.71
11:05:31,2.916835,87.53,33.71
11:05:31,2.9142740000000003,87.53,33.71
11:05:31,2.904029,87.53,33.71
11:05:32,2.904029,87.78,33.68
11:05:32,2.910432,87.78,33.68
11:05:32,2.925799,87.78,33.68
11:05:32,2.938606,87.78,33.68
11:05:33,2.951412,88.02,33.68
11:05:33,2.9565349999999997,88.02,33.68
11:05:33,2.9603770000000003,88.02,33.68
11:05:33,2.957815,88.02,33.68
11:05:34,2.955254,88.22,33.71
11:05:34,2.9501310000000003,88.22,33.71
11:05:34,2.9411669999999996,88.22,33.71
11:05:34,2.9309220000000002,88.22,33.71
11:05:35,2.92708,88.4,33.73
11:05:35,2.925799,88.4,33.73
11:05:35,2.918116,88.4,33.73
11:05:35,2.916835,88.4,33.73
11:05:36,2.909151,88.6,33.68
11:05:36,2.904029,88.6,33.68
11:05:36,2.895064,88.6,33.68
11:05:36,2.891222,88.6,33.68
11:05:37,2.888661,88.8,33.71
11:05:37,2.882258,88.8,33.71
11:05:37,2.878416,88.8,33.71
11:05:37,2.873293,88.8,33.71
11:05:38,2.8694509999999998,89.02,33.71
11:05:38,2.865609,89.02,33.71
11:05:38,2.864329,89.02,33.71
11:05:38,2.861768,89.02,33.71
11:05:39,2.863048,89.22,33.71
11:05:39,2.868171,89.22,33.71
11:05:39,2.861768,89.22,33.71
11:05:39,2.860487,89.22,33.71
11:05:40,2.859206,89.4,33.68
11:05:40,2.859206,89.4,33.68
11:05:40,2.856645,89.4,33.68
11:05:40,2.8528029999999998,89.4,33.68
11:05:41,2.851522,89.63,33.68
11:05:41,2.8502419999999997,89.63,33.68
11:05:41,2.851522,89.63,33.68
11:05:41,2.8502419999999997,89.63,33.68
11:05:42,2.8528029999999998,89.65,33.68
11:05:42,2.856645,89.65,33.68
11:05:42,2.860487,89.65,33.68
11:05:42,2.860487,89.65,33.68
11:05:43,2.868171,89.7,33.71
11:05:43,2.8694509999999998,89.7,33.71
11:05:43,2.874574,89.7,33.71
11:05:43,2.870732,89.7,33.71
11:05:44,2.864329,89.75,33.71
11:05:44,2.870732,89.75,33.71
11:05:44,2.874574,89.75,33.71
11:05:44,2.872013,89.75,33.71
11:05:45,2.870732,89.82,33.73
11:05:45,2.879697,89.82,33.73
11:05:45,2.895064,89.82,33.73
11:05:45,2.911712,89.82,33.73
11:05:46,2.920677,89.87,33.71
11:05:46,2.929641,89.87,33.71
11:05:46,2.936044,89.87,33.71
11:05:46,2.938606,89.87,33.71
11:05:47,2.9334830000000003,89.9,33.71
11:05:47,2.9437279999999997,89.9,33.71
11:05:47,2.955254,89.9,33.71
11:05:47,2.977025,89.9,33.71
11:05:48,3.001357,89.92,33.71
11:05:48,3.033373,89.92,33.71
11:05:48,3.0564240000000003,89.92,33.71
11:05:48,3.070511,89.92,33.71
11:05:49,3.06795,89.97,33.71
11:05:49,3.064108,89.97,33.71
11:05:49,3.0525830000000003,89.97,33.71
11:05:49,3.038496,89.97,33.71
11:05:50,3.019286,90.03,33.71
11:05:50,3.000076,90.03,33.71
11:05:50,2.984709,90.03,33.71
11:05:50,2.977025,90.03,33.71
11:05:51,2.9783060000000003,90.12,33.73
11:05:51,2.9821470000000003,90.12,33.73
11:05:51,2.984709,90.12,33.73
11:05:51,2.989831,90.12,33.73
11:05:52,2.993673,90.2,33.73
11:05:52,2.993673,90.2,33.73
11:05:52,2.993673,90.2,33.73
11:05:52,2.994954,90.2,33.73
11:05:53,2.997515,90.28,33.71
11:05:53,3.023128,90.28,33.71
11:05:53,3.051302,90.28,33.71
11:05:53,3.0820369999999997,90.28,33.71
11:05:54,3.1012470000000003,90.33,33.73
11:05:54,3.110211,90.33,33.73
11:05:54,3.10765,90.33,33.73
11:05:54,3.1012470000000003,90.33,33.73
11:05:55,3.08716,90.37,33.71
11:05:55,3.06795,90.37,33.71
11:05:55,3.048741,90.37,33.71
11:05:55,3.034654,90.37,33.71
11:05:56,3.021847,90.42,33.73
11:05:56,3.014163,90.42,33.73
11:05:56,3.002638,90.42,33.73
11:05:56,2.993673,90.42,33.73
11:05:57,2.9885509999999997,90.45,33.71
11:05:57,2.983428,90.45,33.71
11:05:57,2.983428,90.45,33.71
11:05:57,2.9885509999999997,90.45,33.71
11:05:58,2.985989,90.53,33.73
11:05:58,2.9885509999999997,90.53,33.73
11:05:58,2.98727,90.53,33.73
11:05:58,2.985989,90.53,33.73
11:05:59,2.98727,90.58,33.73
11:05:59,2.983428,90.58,33.73
11:05:59,2.9757439999999997,90.58,33.73
11:05:59,2.971902,90.58,33.73
11:06:00,2.964219,90.67,33.73
11:06:00,2.9616569999999998,90.67,33.73
11:06:00,2.9590959999999997,90.67,33.73
11:06:00,2.955254,90.67,33.73
11:06:01,2.9501310000000003,90.72,33.73
11:06:01,2.9475700000000002,90.72,33.73
11:06:01,2.9462900000000003,90.72,33.73
11:06:01,2.9501310000000003,90.72,33.73
11:06:02,2.952693,90.78,33.71
11:06:02,2.952693,90.78,33.71
11:06:02,2.9501310000000003,90.78,33.71
11:06:02,2.948851,90.78,33.71
11:06:03,2.9437279999999997,90.83,33.73
11:06:03,2.942448,90.83,33.73
11:06:03,2.9437279999999997,90.83,33.73
11:06:03,2.939886,90.83,33.73
11:06:04,2.932203,90.88,33.73
11:06:04,2.9309220000000002,90.88,33.73
11:06:04,2.929641,90.88,33.73
11:06:04,2.924519,90.88,33.73
11:06:05,2.925799,90.9,33.75
11:06:05,2.936044,90.9,33.75
11:06:05,2.9411669999999996,90.9,33.75
11:06:05,2.951412,90.9,33.75
11:06:06,2.953974,90.93,33.73
11:06:06,2.953974,90.93,33.73
11:06:06,2.955254,90.93,33.73
11:06:06,2.951412,90.93,33.73
11:06:07,2.945009,90.95,33.75
11:06:07,2.9411669999999996,90.95,33.75
11:06:07,2.9334830000000003,90.95,33.75
11:06:07,2.928361,90.95,33.75
11:06:08,2.925799,90.98,33.73
11:06:08,2.921957,90.98,33.73
11:06:08,2.923238,90.98,33.73
11:06:08,2.920677,90.98,33.73
11:06:09,2.918116,91.0,33.77
11:06:09,2.9142740000000003,91.0,33.77
11:06:09,2.915554,91.0,33.77
11:06:09,2.910432,91.0,33.77
11:06:10,2.909151,91.02,33.73
11:06:10,2.910432,91.02,33.73
11:06:10,2.90659,91.02,33.73
11:06:10,2.907871,91.02,33.73
11:06:11,2.900187,91.03,33.75
11:06:11,2.898906,91.03,33.75
11:06:11,2.897625,91.03,33.75
11:06:11,2.902748,91.03,33.75
11:06:12,2.902748,91.07,33.75
11:06:12,2.898906,91.07,33.75
11:06:12,2.895064,91.07,33.75
11:06:12,2.892503,91.07,33.75
11:06:13,2.897625,91.1,33.75
11:06:13,2.905309,91.1,33.75
11:06:13,2.9142740000000003,91.1,33.75
11:06:13,2.915554,91.1,33.75
11:06:14,2.918116,91.15,33.75
11:06:14,2.924519,91.15,33.75
11:06:14,2.924519,91.15,33.75
11:06:14,2.929641,91.15,33.75
11:06:15,2.936044,91.18,33.75
11:06:15,2.9411669999999996,91.18,33.75
11:06:15,2.945009,91.18,33.75
11:06:15,2.942448,91.18,33.75
11:06:16,2.939886,91.22,33.77
11:06:16,2.934764,91.22,33.77
11:06:16,2.932203,91.22,33.77
11:06:16,2.925799,91.22,33.77
11:06:17,2.924519,91.23,33.75
11:06:17,2.918116,91.23,33.75
11:06:17,2.912993,91.23,33.75
11:06:17,2.911712,91.23,33.75
11:06:18,2.918116,91.28,33.77
11:06:18,2.9437279999999997,91.28,33.77
11:06:18,2.983428,91.28,33.77
11:06:18,3.02825,91.28,33.77
11:06:19,3.071792,91.35,33.75
11:06:19,3.1038080000000003,91.35,33.75
11:06:19,3.125579,91.35,33.75
11:06:19,3.135824,91.35,33.75
11:06:20,3.12814,91.43,33.75
11:06:20,3.1166139999999998,91.43,33.75
11:06:20,3.0948439999999997,91.43,33.75
11:06:20,3.073073,91.43,33.75
11:06:21,3.058986,91.5,33.75
11:06:21,3.039776,91.5,33.75
11:06:21,3.024409,91.5,33.75
11:06:21,3.011602,91.5,33.75
11:06:22,3.009041,91.55,33.75
11:06:22,3.001357,91.55,33.75
11:06:22,2.996234,91.55,33.75
11:06:22,2.992393,91.55,33.75
11:06:23,2.994954,91.62,33.75
11:06:23,2.997515,91.62,33.75
11:06:23,3.001357,91.62,33.75
11:06:23,3.001357,91.62,33.75
11:06:24,2.994954,91.6,33.75
11:06:24,2.98727,91.6,33.75
11:06:24,2.980867,91.6,33.75
11:06:24,2.9757439999999997,91.6,33.75
11:06:25,2.9744639999999998,91.6,33.77
11:06:25,2.970622,91.6,33.77
11:06:25,2.9744639999999998,91.6,33.77
11:06:25,2.985989,91.6,33.77
11:06:26,2.998796,91.55,33.79
11:06:26,3.021847,91.55,33.79
11:06:26,3.038496,91.55,33.79
11:06:26,3.0564240000000003,91.55,33.79
11:06:27,3.071792,91.45,33.79
11:06:27,3.0820369999999997,91.45,33.79
11:06:27,3.0794759999999997,91.45,33.79
11:06:27,3.073073,91.45,33.79
11:06:28,3.070511,91.33,33.81
11:06:28,3.0833180000000002,91.33,33.81
11:06:28,3.0974049999999997,91.33,33.81
11:06:28,3.123018,91.33,33.81
11:06:29,3.143508,91.2,33.77
11:06:29,3.162717,91.2,33.77
11:06:29,3.165278,91.2,33.77
11:06:29,3.16784,91.2,33.77
11:06:30,3.157595,91.0,33.79
11:06:30,3.14863,91.0,33.79
11:06:30,3.135824,91.0,33.79
11:06:30,3.119176,91.0,33.79
11:06:31,3.115334,90.77,33.77
11:06:31,3.1012470000000003,90.77,33.77
11:06:31,3.096124,90.77,33.77
11:06:31,3.091002,90.77,33.77
11:06:32,3.096124,90.55,33.77
11:06:32,3.10765,90.55,33.77
11:06:32,3.121737,90.55,33.77
11:06:32,3.134543,90.55,33.77
11:06:33,3.142227,90.33,33.79
11:06:33,3.14735,90.33,33.79
11:06:33,3.144788,90.33,33.79
11:06:33,3.138385,90.33,33.79
11:06:34,3.134543,90.15,33.79
11:06:34,3.134543,90.15,33.79
11:06:34,3.138385,90.15,33.79
11:06:34,3.142227,90.15,33.79
11:06:35,3.142227,89.98,33.77
11:06:35,3.137105,89.98,33.77
11:06:35,3.1307009999999997,89.98,33.77
11:06:35,3.117895,89.98,33.77
11:06:36,3.1038080000000003,89.82,33.79
11:06:36,3.096124,89.82,33.79
11:06:36,3.084598,89.82,33.79
11:06:36,3.078195,89.82,33.79
11:06:37,3.074353,89.65,33.81
11:06:37,3.0628279999999997,89.65,33.81
11:06:37,3.0628279999999997,89.65,33.81
11:06:37,3.060266,89.65,33.81
11:06:38,3.057705,89.48,33.81
11:06:38,3.06795,89.48,33.81
11:06:38,3.080756,89.48,33.81
11:06:38,3.096124,89.48,33.81
11:06:39,3.1114919999999997,89.32,33.77
11:06:39,3.1114919999999997,89.32,33.77
11:06:39,3.110211,89.32,33.77
11:06:39,3.1038080000000003,89.32,33.77
11:06:40,3.0999659999999998,89.17,33.79
11:06:40,3.089721,89.17,33.79
11:06:40,3.078195,89.17,33.79
11:06:40,3.071792,89.17,33.79
11:06:41,3.061547,88.95,33.79
11:06:41,3.060266,88.95,33.79
11:06:41,3.0564240000000003,88.95,33.79
11:06:41,3.066669,88.95,33.79
11:06:42,3.0948439999999997,88.97,33.77
11:06:42,3.133263,88.97,33.77
11:06:42,3.169121,88.97,33.77
11:06:42,3.1947330000000003,88.97,33.77
11:06:43,3.212662,88.97,33.79
11:06:43,3.213943,88.97,33.79
11:06:43,3.2177849999999997,88.97,33.79
11:06:43,3.206259,88.97,33.79
11:06:44,3.2024169999999996,88.98,33.81
11:06:44,3.212662,88.98,33.81
11:06:44,3.2203459999999997,88.98,33.81
11:06:44,3.233152,88.98,33.81
11:06:45,3.238275,89.03,33.81
11:06:45,3.244678,89.03,33.81
11:06:45,3.2433970000000003,89.03,33.81
11:06:45,3.2395560000000003,89.03,33.81
11:06:46,3.229311,89.05,33.81
11:06:46,3.210101,89.05,33.81
11:06:46,3.210101,89.05,33.81
11:06:46,3.212662,89.05,33.81
11:06:47,3.24852,89.17,33.79
11:06:47,3.302307,89.17,33.79
11:06:47,3.358655,89.17,33.79
11:06:47,3.4124410000000003,89.17,33.79
11:06:48,3.44958,89.25,33.79
11:06:48,3.4666989999999998,89.25,33.79
11:06:48,3.4666989999999998,89.25,33.79
11:06:48,3.45005,89.25,33.79
11:06:49,3.4180339999999996,89.37,33.81
11:06:49,3.383457,89.37,33.81
11:06:49,3.368089,89.37,33.81
11:06:49,3.373212,89.37,33.81
11:06:50,3.3796150000000003,89.48,33.83
11:06:50,3.383457,89.48,33.83
11:06:50,3.3847379999999996,89.48,33.83
11:06:50,3.3796150000000003,89.48,33.83
11:06:51,3.365528,89.58,33.81
11:06:51,3.3488800000000003,89.58,33.81
11:06:51,3.3271089999999997,89.58,33.81
11:06:51,3.3219870000000005,89.58,33.81
11:06:52,3.320706,89.68,33.81
11:06:52,3.323267,89.68,33.81
11:06:52,3.325829,89.68,33.81
11:06:52,3.318145,89.68,33.81
11:06:53,3.318145,89.78,33.79
11:06:53,3.318145,89.78,33.79
11:06:53,3.319425,89.78,33.79
11:06:53,3.316864,89.78,33.79
11:06:54,3.320706,89.93,33.79
11:06:54,3.330951,89.93,33.79
11:06:54,3.334793,89.93,33.79
11:06:54,3.3399160000000006,89.93,33.79
11:06:55,3.3450379999999997,90.07,33.79
11:06:55,3.341196,90.07,33.79
11:06:55,3.337354,90.07,33.79
11:06:55,3.341196,90.07,33.79
11:06:56,3.336074,90.12,33.81
11:06:56,3.337354,90.12,33.81
11:06:56,3.332232,90.12,33.81
11:06:56,3.3296699999999997,90.12,33.81
11:06:57,3.3245480000000005,90.15,33.83
11:06:57,3.310461,90.15,33.83
11:06:57,3.297654,90.15,33.83
11:06:57,3.282287,90.15,33.83
11:06:58,3.2656389999999997,90.13,33.83
11:06:58,3.2566740000000003,90.13,33.83
11:06:58,3.242587,90.13,33.83
11:06:58,3.233623,90.13,33.83
11:06:59,3.233623,89.98,33.81
11:06:59,3.234903,89.98,33.81
11:06:59,3.238745,89.98,33.81
11:06:59,3.231061,89.98,33.81
11:07:00,3.2246580000000002,89.83,33.81
11:07:00,3.223377,89.83,33.81
11:07:00,3.2246580000000002,89.83,33.81
11:07:00,3.2323419999999996,89.83,33.81
11:07:01,3.252832,89.73,33.81
11:07:01,3.2733220000000003,89.73,33.81
11:07:01,3.3091800000000005,89.73,33.81
11:07:01,3.350161,89.73,33.81
11:07:02,3.3770540000000002,89.6,33.81
11:07:02,3.396264,89.6,33.81
11:07:02,3.4026669999999997,89.6,33.81
11:07:02,3.3949830000000003,89.6,33.81
11:07:03,3.3821769999999995,89.48,33.84
11:07:03,3.380896,89.48,33.84
11:07:03,3.4026669999999997,89.48,33.84
11:07:03,3.416754,89.48,33.84
11:07:04,3.434683,89.37,33.81
11:07:04,3.45005,89.37,33.81
11:07:04,3.4551730000000003,89.37,33.81
11:07:04,3.45005,89.37,33.81
11:07:05,3.4359629999999997,89.23,33.83
11:07:05,3.411631,89.23,33.83
11:07:05,3.38858,89.23,33.83
11:07:05,3.3668089999999995,89.23,33.83
11:07:06,3.352722,89.1,33.83
11:07:06,3.337354,89.1,33.83
11:07:06,3.3296699999999997,89.1,33.83
11:07:06,3.319425,89.1,33.83
11:07:07,3.319425,88.98,33.83
11:07:07,3.3335120000000003,88.98,33.83
11:07:07,3.360406,88.98,33.83
11:07:07,3.398825,88.98,33.83
11:07:08,3.4308410000000005,88.87,33.81
11:07:08,3.457734,88.87,33.81
11:07:08,3.474382,88.87,33.81
11:07:08,3.498714,88.87,33.81
11:07:09,3.51024,88.77,33.83
11:07:09,3.523046,88.77,33.83
11:07:09,3.514082,88.77,33.83
11:07:09,3.502556,88.77,33.83
11:07:10,3.496153,88.63,33.83
11:07:10,3.4846269999999997,88.63,33.83
11:07:10,3.479505,88.63,33.83
11:07:10,3.467979,88.63,33.83
11:07:11,3.462857,88.52,33.81
11:07:11,3.461576,88.52,33.81
11:07:11,3.4538919999999997,88.52,33.81
11:07:11,3.447489,88.52,33.81
11:07:12,3.4398050000000002,88.4,33.81
11:07:12,3.4398050000000002,88.4,33.81
11:07:12,3.437244,88.4,33.81
11:07:12,3.432121,88.4,33.81
11:07:13,3.42956,88.3,33.81
11:07:13,3.4359629999999997,88.3,33.81
11:07:13,3.457734,88.3,33.81
11:07:13,3.478224,88.3,33.81
11:07:14,3.498714,88.2,33.81
11:07:14,3.5089599999999996,88.2,33.81
11:07:14,3.507679,88.2,33.81
11:07:14,3.4999949999999997,88.2,33.81
11:07:15,3.492311,88.12,33.83
11:07:15,3.483347,88.12,33.83
11:07:15,3.4641370000000005,88.12,33.83
11:07:15,3.45005,88.12,33.83
11:07:16,3.441086,88.05,33.83
11:07:16,3.4487699999999997,88.05,33.83
11:07:16,3.4641370000000005,88.05,33.83
11:07:16,3.480786,88.05,33.83
11:07:17,3.4974339999999997,88.0,33.81
11:07:17,3.498714,88.0,33.81
11:07:17,3.4999949999999997,88.0,33.81
11:07:17,3.5012760000000003,88.0,33.81
11:07:18,3.502556,87.92,33.83
11:07:18,3.498714,87.92,33.83
11:07:18,3.498714,87.92,33.83
11:07:18,3.51024,87.92,33.83
11:07:19,3.5243269999999995,87.83,33.83
11:07:19,3.5243269999999995,87.83,33.83
11:07:19,3.5320110000000002,87.83,33.83
11:07:19,3.543537,87.83,33.83
11:07:20,3.5614660000000002,87.75,33.83
11:07:20,3.581956,87.75,33.83
11:07:20,3.5857980000000005,87.75,33.83
11:07:20,3.5883589999999996,87.75,33.83
11:07:21,3.583236,87.68,33.84
11:07:21,3.5755529999999998,87.68,33.84
11:07:21,3.571711,87.68,33.84
11:07:21,3.5601849999999997,87.68,33.84
11:07:22,3.5422559999999996,87.62,33.83
11:07:22,3.5396949999999996,87.62,33.83
11:07:22,3.556343,87.62,33.83
11:07:22,3.581956,87.62,33.83
11:07:23,3.6152519999999995,87.58,33.84
11:07:23,3.634462,87.58,33.84
11:07:23,3.652391,87.58,33.84
11:07:23,3.6562330000000003,87.58,33.84
11:07:24,3.652391,87.57,33.83
11:07:24,3.647268,87.57,33.83
11:07:24,3.6306199999999995,87.57,33.83
11:07:24,3.611411,87.57,33.83
11:07:25,3.58964,87.57,33.84
11:07:25,3.579395,87.57,33.84
11:07:25,3.5653080000000004,87.57,33.84
11:07:25,3.556343,87.57,33.84
11:07:26,3.5525010000000004,87.57,33.83
11:07:26,3.548659,87.57,33.83
11:07:26,3.543537,87.57,33.83
11:07:26,3.5422559999999996,87.57,33.83
11:07:27,3.5371339999999996,87.58,33.84
11:07:27,3.5345720000000003,87.58,33.84
11:07:27,3.528169,87.58,33.84
11:07:27,3.523046,87.58,33.84
11:07:28,3.528169,87.57,33.81
11:07:28,3.548659,87.57,33.81
11:07:28,3.5729910000000005,87.57,33.81
11:07:28,3.596043,87.57,33.81
11:07:29,3.611411,87.57,33.83
11:07:29,3.620375,87.57,33.83
11:07:29,3.6126910000000003,87.57,33.83
11:07:29,3.6075690000000002,87.57,33.83
11:07:30,3.597324,87.58,33.83
11:07:30,3.580675,87.58,33.83
11:07:30,3.5678690000000004,87.58,33.83
11:07:30,3.556343,87.58,33.83
11:07:31,3.543537,87.6,33.84
11:07:31,3.540976,87.6,33.84
11:07:31,3.5345720000000003,87.6,33.84
11:07:31,3.53073,87.6,33.84
11:07:32,3.53073,87.6,33.84
11:07:32,3.5217660000000004,87.6,33.84
11:07:32,3.5217660000000004,87.6,33.84
11:07:32,3.5166440000000003,87.6,33.84
11:07:33,3.514082,87.6,33.84
11:07:33,3.5089599999999996,87.6,33.84
11:07:33,3.5089599999999996,87.6,33.84
11:07:33,3.5063980000000003,87.6,33.84
11:07:34,3.5089599999999996,87.6,33.83
11:07:34,3.502556,87.6,33.83
11:07:34,3.4999949999999997,87.6,33.83
11:07:34,3.494873,87.6,33.83
11:07:35,3.494873,87.6,33.84
11:07:35,3.498714,87.6,33.84
11:07:35,3.4974339999999997,87.6,33.84
11:07:35,3.494873,87.6,33.84
11:07:36,3.493592,87.62,33.84
11:07:36,3.48975,87.62,33.84
11:07:36,3.4859080000000002,87.62,33.84
11:07:36,3.4859080000000002,87.62,33.84
11:07:37,3.483347,87.63,33.84
11:07:37,3.4846269999999997,87.63,33.84
11:07:37,3.479505,87.63,33.84
11:07:37,3.480786,87.63,33.84
11:07:38,3.476944,87.65,33.84
11:07:38,3.476944,87.65,33.84
11:07:38,3.4731019999999995,87.65,33.84
11:07:38,3.471821,87.65,33.84
11:07:39,3.478224,87.67,33.83
11:07:39,3.4820660000000005,87.67,33.83
11:07:39,3.4846269999999997,87.67,33.83
11:07:39,3.480786,87.67,33.83
11:07:40,3.4820660000000005,87.67,33.84
11:07:40,3.480786,87.67,33.84
11:07:40,3.478224,87.67,33.84
11:07:40,3.471821,87.67,33.84
11:07:41,3.467979,87.65,33.84
11:07:41,3.46926,87.65,33.84
11:07:41,3.460295,87.65,33.84
11:07:41,3.460295,87.65,33.84
11:07:42,3.456454,87.63,33.84
11:07:42,3.457734,87.63,33.84
11:07:42,3.456454,87.63,33.84
11:07:42,3.459015,87.63,33.84
11:07:43,3.465418,87.62,33.84
11:07:43,3.46926,87.62,33.84
11:07:43,3.478224,87.62,33.84
11:07:43,3.475663,87.62,33.84
11:07:44,3.471821,87.58,33.87
11:07:44,3.471821,87.58,33.87
11:07:44,3.471821,87.58,33.87
11:07:44,3.46926,87.58,33.87
11:07:45,3.476944,87.52,33.87
11:07:45,3.4974339999999997,87.52,33.87
11:07:45,3.511521,87.52,33.87
11:07:45,3.5243269999999995,87.52,33.87
11:07:46,3.5089599999999996,87.5,33.87
11:07:46,3.4731019999999995,87.5,33.87
11:07:46,3.4513309999999997,87.5,33.87
11:07:46,3.432121,87.5,33.87
11:07:47,3.424438,87.4,33.84
11:07:47,3.4334019999999996,87.4,33.84
11:07:47,3.441086,87.4,33.84
11:07:47,3.457734,87.4,33.84
11:07:48,3.483347,87.33,33.87
11:07:48,3.5166440000000003,87.33,33.87
11:07:48,3.5473790000000003,87.33,33.87
11:07:48,3.576833,87.33,33.87
11:07:49,3.602446,87.23,33.84
11:07:49,3.6062879999999997,87.23,33.84
11:07:49,3.613972,87.23,33.84
11:07:49,3.6088489999999998,87.23,33.84
11:07:50,3.593482,87.1,33.87
11:07:50,3.578114,87.1,33.87
11:07:50,3.5601849999999997,87.1,33.87
11:07:50,3.5473790000000003,87.1,33.87
11:07:51,3.53073,86.98,33.87
11:07:51,3.525608,86.98,33.87
11:07:51,3.511521,86.98,33.87
11:07:51,3.5063980000000003,86.98,33.87
11:07:52,3.494873,86.88,33.87
11:07:52,3.48975,86.88,33.87
11:07:52,3.480786,86.88,33.87
11:07:52,3.478224,86.88,33.87
11:07:53,3.471821,86.78,33.83
11:07:53,3.467979,86.78,33.83
11:07:53,3.461576,86.78,33.83
11:07:53,3.457734,86.78,33.83
11:07:54,3.493592,86.65,33.84
11:07:54,3.5601849999999997,86.65,33.84
11:07:54,3.6587940000000003,86.65,33.84
11:07:54,3.744597,86.65,33.84
11:07:55,3.8214349999999997,86.57,33.84
11:07:55,3.8688190000000002,86.57,33.84
11:07:55,3.8893089999999995,86.57,33.84
11:07:55,3.893151,86.57,33.84
11:07:56,3.866257,86.53,33.84
11:07:56,3.8265580000000003,86.53,33.84
11:07:56,3.781735,86.53,33.84
11:07:56,3.734352,86.53,33.84
11:07:57,3.6895290000000003,86.55,33.87
11:07:57,3.6459879999999996,86.55,33.87
11:07:57,3.6126910000000003,86.55,33.87
11:07:57,3.5883589999999996,86.55,33.87
11:07:58,3.569149,86.58,33.89
11:07:58,3.553782,86.58,33.89
11:07:58,3.5396949999999996,86.58,33.89
11:07:58,3.5217660000000004,86.58,33.89
11:07:59,3.514082,86.78,33.87
11:07:59,3.512801,86.78,33.87
11:07:59,3.5038370000000003,86.78,33.87
11:07:59,3.4999949999999997,86.78,33.87
11:08:00,3.492311,86.95,33.87
11:08:00,3.483347,86.95,33.87
11:08:00,3.4846269999999997,86.95,33.87
11:08:00,3.478224,86.95,33.87
11:08:01,3.4705410000000003,87.07,33.87
11:08:01,3.4705410000000003,87.07,33.87
11:08:01,3.462857,87.07,33.87
11:08:01,3.456454,87.07,33.87
11:08:02,3.4551730000000003,87.18,33.87
11:08:02,3.4538919999999997,87.18,33.87
11:08:02,3.452611,87.18,33.87
11:08:02,3.45005,87.18,33.87
11:08:03,3.443647,87.27,33.87
11:08:03,3.4385239999999997,87.27,33.87
11:08:03,3.443647,87.27,33.87
11:08:03,3.447489,87.27,33.87
11:08:04,3.4423660000000003,87.37,33.87
11:08:04,3.441086,87.37,33.87
11:08:04,3.4385239999999997,87.37,33.87
11:08:04,3.437244,87.37,33.87
11:08:05,3.4385239999999997,87.47,33.87
11:08:05,3.4334019999999996,87.47,33.87
11:08:05,3.434683,87.47,33.87
11:08:05,3.4334019999999996,87.47,33.87
11:08:06,3.4282790000000003,87.58,33.89
11:08:06,3.423157,87.58,33.89
11:08:06,3.4180339999999996,87.58,33.89
11:08:06,3.4129120000000004,87.58,33.89
11:08:07,3.40907,87.68,33.89
11:08:07,3.4077889999999997,87.68,33.89
11:08:07,3.416754,87.68,33.89
11:08:07,3.4154730000000004,87.68,33.89
11:08:08,3.4180339999999996,87.75,33.89
11:08:08,3.421876,87.75,33.89
11:08:08,3.4282790000000003,87.75,33.89
11:08:08,3.42956,87.75,33.89
11:08:09,3.42956,87.83,33.84
11:08:09,3.4282790000000003,87.83,33.84
11:08:09,3.423157,87.83,33.84
11:08:09,3.4205959999999997,87.83,33.84
11:08:10,3.4154730000000004,87.93,33.87
11:08:10,3.414192,87.93,33.87
11:08:10,3.411631,87.93,33.87
11:08:10,3.40907,87.93,33.87
11:08:11,3.406509,88.03,33.87
11:08:11,3.403947,88.03,33.87
11:08:11,3.401386,88.03,33.87
11:08:11,3.4077889999999997,88.03,33.87
11:08:12,3.40907,88.15,33.87
11:08:12,3.406509,88.15,33.87
11:08:12,3.4077889999999997,88.15,33.87
11:08:12,3.406509,88.15,33.87
11:08:13,3.40907,88.23,33.87
11:08:13,3.406509,88.23,33.87
11:08:13,3.4026669999999997,88.23,33.87
11:08:13,3.4001050000000004,88.23,33.87
11:08:14,3.3949830000000003,88.33,33.87
11:08:14,3.4026669999999997,88.33,33.87
11:08:14,3.398825,88.33,33.87
11:08:14,3.3898599999999997,88.33,33.87
11:08:15,3.3847379999999996,88.42,33.87
11:08:15,3.3847379999999996,88.42,33.87
11:08:15,3.380896,88.42,33.87
11:08:15,3.380896,88.42,33.87
11:08:16,3.375773,88.48,33.87
11:08:16,3.3847379999999996,88.48,33.87
11:08:16,3.380896,88.48,33.87
11:08:16,3.38858,88.48,33.87
11:08:17,3.3937019999999998,88.53,33.87
11:08:17,3.396264,88.53,33.87
11:08:17,3.4052279999999997,88.53,33.87
11:08:17,3.411631,88.53,33.87
11:08:18,3.4205959999999997,88.6,33.89
11:08:18,3.426999,88.6,33.89
11:08:18,3.424438,88.6,33.89
11:08:18,3.425718,88.6,33.89
11:08:19,3.4205959999999997,88.65,33.91
11:08:19,3.421876,88.65,33.91
11:08:19,3.423157,88.65,33.91
11:08:19,3.419315,88.65,33.91
11:08:20,3.4180339999999996,88.7,33.89
11:08:20,3.411631,88.7,33.89
11:08:20,3.4052279999999997,88.7,33.89
11:08:20,3.3975440000000003,88.7,33.89
11:08:21,3.3937019999999998,88.73,33.87
11:08:21,3.3937019999999998,88.73,33.87
11:08:21,3.3924220000000003,88.73,33.87
11:08:21,3.3924220000000003,88.73,33.87
11:08:22,3.3949830000000003,88.75,33.84
11:08:22,3.3937019999999998,88.75,33.84
11:08:22,3.396264,88.75,33.84
11:08:22,3.403947,88.75,33.84
11:08:23,3.4077889999999997,88.75,33.89
11:08:23,3.4103510000000004,88.75,33.89
11:08:23,3.421876,88.75,33.89
11:08:23,3.4180339999999996,88.75,33.89
11:08:24,3.411631,88.77,33.87
11:08:24,3.414192,88.77,33.87
11:08:24,3.40907,88.77,33.87
11:08:24,3.403947,88.77,33.87
11:08:25,3.3949830000000003,88.78,33.87
11:08:25,3.38858,88.78,33.87
11:08:25,3.383457,88.78,33.87
11:08:25,3.378335,88.78,33.87
11:08:26,3.374493,88.8,33.87
11:08:26,3.375773,88.8,33.87
11:08:26,3.3693699999999995,88.8,33.87
11:08:26,3.3693699999999995,88.8,33.87
11:08:27,3.370651,88.8,33.89
11:08:27,3.3693699999999995,88.8,33.89
11:08:27,3.3719309999999996,88.8,33.89
11:08:27,3.3693699999999995,88.8,33.89
11:08:28,3.3693699999999995,88.83,33.87
11:08:28,3.3693699999999995,88.83,33.87
11:08:28,3.370651,88.83,33.87
11:08:28,3.3668089999999995,88.83,33.87
11:08:29,3.3642480000000003,88.85,33.84
11:08:29,3.361686,88.85,33.84
11:08:29,3.355283,88.85,33.84
11:08:29,3.360406,88.85,33.84
11:08:30,3.3642480000000003,88.92,33.87
11:08:30,3.355283,88.92,33.87
11:08:30,3.3488800000000003,88.92,33.87
11:08:30,3.3450379999999997,88.92,33.87
11:08:31,3.3424769999999997,88.97,33.89
11:08:31,3.3399160000000006,88.97,33.89
11:08:31,3.337354,88.97,33.89
11:08:31,3.336074,88.97,33.89
11:08:32,3.3335120000000003,89.03,33.89
11:08:32,3.332232,89.03,33.89
11:08:32,3.334793,89.03,33.89
11:08:32,3.336074,89.03,33.89
11:08:33,3.3475989999999998,89.15,33.89
11:08:33,3.352722,89.15,33.89
11:08:33,3.3488800000000003,89.15,33.89
11:08:33,3.3463190000000003,89.15,33.89
11:08:34,3.3450379999999997,89.28,33.87
11:08:34,3.341196,89.28,33.87
11:08:34,3.3399160000000006,89.28,33.87
11:08:34,3.3335120000000003,89.28,33.87
11:08:35,3.3296699999999997,89.42,33.87
11:08:35,3.3271089999999997,89.42,33.87
11:08:35,3.325829,89.42,33.87
11:08:35,3.3271089999999997,89.42,33.87
11:08:36,3.313022,89.53,33.87
11:08:36,3.315583,89.53,33.87
11:08:36,3.307899,89.53,33.87
11:08:36,3.3040580000000004,89.53,33.87
11:08:37,3.2989349999999997,89.63,33.89
11:08:37,3.2989349999999997,89.63,33.89
11:08:37,3.295093,89.63,33.89
11:08:37,3.2963739999999997,89.63,33.89
11:08:38,3.2938129999999997,89.7,33.87
11:08:38,3.297654,89.7,33.87
11:08:38,3.297654,89.7,33.87
11:08:38,3.289971,89.7,33.87
11:08:39,3.2886900000000003,89.77,33.87
11:08:39,3.287409,89.77,33.87
11:08:39,3.284848,89.77,33.87
11:08:39,3.279726,89.77,33.87
11:08:40,3.277164,89.83,33.87
11:08:40,3.279726,89.83,33.87
11:08:40,3.2784449999999996,89.83,33.87
11:08:40,3.2784449999999996,89.83,33.87
11:08:41,3.2733220000000003,89.92,33.87
11:08:41,3.2733220000000003,89.92,33.87
11:08:41,3.272042,89.92,33.87
11:08:41,3.272042,89.92,33.87
11:08:42,3.2682,89.98,33.89
11:08:42,3.2733220000000003,89.98,33.89
11:08:42,3.2682,89.98,33.89
11:08:42,3.2694799999999997,89.98,33.89
11:08:43,3.2669189999999997,90.07,33.89
11:08:43,3.2656389999999997,90.07,33.89
11:08:43,3.2694799999999997,90.07,33.89
11:08:43,3.259235,90.07,33.89
11:08:44,3.259235,90.15,33.89
11:08:44,3.2541130000000003,90.15,33.89
11:08:44,3.24899,90.15,33.89
11:08:44,3.245148,90.15,33.89
11:08:45,3.240026,90.22,33.87
11:08:45,3.238745,90.22,33.87
11:08:45,3.240026,90.22,33.87
11:08:45,3.237464,90.22,33.87
11:08:46,3.233623,90.27,33.87
11:08:46,3.2323419999999996,90.27,33.87
11:08:46,3.229781,90.27,33.87
11:08:46,3.2323419999999996,90.27,33.87
11:08:47,3.2246580000000002,90.32,33.87
11:08:47,3.222097,90.32,33.87
11:08:47,3.218255,90.32,33.87
11:08:47,3.215694,90.32,33.87
11:08:48,3.214413,90.37,33.87
11:08:48,3.216974,90.37,33.87
11:08:48,3.216974,90.37,33.87
11:08:48,3.211852,90.37,33.87
11:08:49,3.20801,90.42,33.87
11:08:49,3.206729,90.42,33.87
11:08:49,3.201607,90.42,33.87
11:08:49,3.201607,90.42,33.87
11:08:50,3.196484,90.5,33.87
11:08:50,3.191362,90.5,33.87
11:08:50,3.18752,90.5,33.87
11:08:50,3.184958,90.5,33.87
11:08:51,3.1888,90.57,33.87
11:08:51,3.186239,90.57,33.87
11:08:51,3.181117,90.57,33.87
11:08:51,3.172152,90.57,33.87
11:08:52,3.170871,90.63,33.87
11:08:52,3.174713,90.63,33.87
11:08:52,3.16831,90.63,33.87
11:08:52,3.164468,90.63,33.87
11:08:53,3.156784,90.68,33.84
11:08:53,3.1606259999999997,90.68,33.84
11:08:53,3.156784,90.68,33.84
11:08:53,3.158065,90.68,33.84
11:08:54,3.154223,90.73,33.87
11:08:54,3.156784,90.73,33.87
11:08:54,3.1593459999999998,90.73,33.87
11:08:54,3.163188,90.73,33.87
11:08:55,3.170871,90.77,33.89
11:08:55,3.170871,90.77,33.89
11:08:55,3.172152,90.77,33.89
11:08:55,3.16703,90.77,33.89
11:08:56,3.1657490000000004,90.78,33.84
11:08:56,3.16703,90.78,33.84
11:08:56,3.16703,90.78,33.84
11:08:56,3.164468,90.78,33.84
11:08:57,3.155504,90.8,33.84
11:08:57,3.1503810000000003,90.8,33.84
11:08:57,3.1439779999999997,90.8,33.84
11:08:57,3.1478200000000003,90.8,33.84
11:08:58,3.140136,90.82,33.89
11:08:58,3.136294,90.82,33.89
11:08:58,3.1286099999999997,90.82,33.89
11:08:58,3.1273299999999997,90.82,33.89
11:08:59,3.126049,90.85,33.84
11:08:59,3.124768,90.85,33.84
11:08:59,3.122207,90.85,33.84
11:08:59,3.114523,90.85,33.84
11:09:00,3.1158040000000002,90.9,33.84
11:09:00,3.111962,90.9,33.84
11:09:00,3.10684,90.9,33.84
11:09:00,3.100436,90.9,33.84
11:09:01,3.096595,90.97,33.87
11:09:01,3.091472,90.97,33.87
11:09:01,3.088911,90.97,33.87
11:09:01,3.083788,90.97,33.87
11:09:02,3.085069,91.05,33.84
11:09:02,3.08763,91.05,33.84
11:09:02,3.081227,91.05,33.84
11:09:02,3.078665,91.05,33.84
11:09:03,3.072262,91.13,33.84
11:09:03,3.069701,91.13,33.84
11:09:03,3.063298,91.13,33.84
11:09:03,3.060737,91.13,33.84
11:09:04,3.056895,91.18,33.87
11:09:04,3.059456,91.18,33.87
11:09:04,3.049211,91.18,33.87
11:09:04,3.051772,91.18,33.87
11:09:05,3.0504919999999998,91.25,33.84
11:09:05,3.04665,91.25,33.84
11:09:05,3.040246,91.25,33.84
11:09:05,3.036405,91.25,33.84
11:09:06,3.036405,91.28,33.84
11:09:06,3.030001,91.28,33.84
11:09:06,3.032563,91.28,33.84
11:09:06,3.024879,91.28,33.84
11:09:07,3.02616,91.35,33.87
11:09:07,3.024879,91.35,33.87
11:09:07,3.023598,91.35,33.87
11:09:07,3.024879,91.35,33.87
11:09:08,3.023598,91.45,33.84
11:09:08,3.015914,91.45,33.84
11:09:08,3.014634,91.45,33.84
11:09:08,3.013353,91.45,33.84
11:09:09,3.0082299999999997,91.55,33.84
11:09:09,3.0056689999999997,91.55,33.84
11:09:09,3.001827,91.55,33.84
11:09:09,2.997985,91.55,33.84
11:09:10,2.9928630000000003,91.67,33.87
11:09:10,2.991582,91.67,33.87
11:09:10,2.994143,91.67,33.87
11:09:10,2.996705,91.67,33.87
11:09:11,2.9903020000000002,91.77,33.84
11:09:11,2.98774,91.77,33.84
11:09:11,2.9864599999999997,91.77,33.84
11:09:11,2.982618,91.77,33.84
11:09:12,2.985179,91.83,33.87
11:09:12,2.9864599999999997,91.83,33.87
11:09:12,2.98774,91.83,33.87
11:09:12,2.985179,91.83,33.87
11:09:13,2.983898,91.9,33.84
11:09:13,2.9864599999999997,91.9,33.84
11:09:13,2.994143,91.9,33.84
11:09:13,2.9903020000000002,91.9,33.84
11:09:14,2.991582,91.93,33.84
11:09:14,2.9890209999999997,91.93,33.84
11:09:14,2.983898,91.93,33.84
11:09:14,2.981337,91.93,33.84
11:09:15,2.980057,91.95,33.84
11:09:15,2.9774950000000002,91.95,33.84
11:09:15,2.9710919999999996,91.95,33.84
11:09:15,2.968531,91.95,33.84
11:09:16,2.968531,91.97,33.87
11:09:16,2.9710919999999996,91.97,33.87
11:09:16,2.964689,91.97,33.87
11:09:16,2.962128,91.97,33.87
11:09:17,2.955724,92.0,33.84
11:09:17,2.951882,92.0,33.84
11:09:17,2.949321,92.0,33.84
11:09:17,2.94804,92.0,33.84
11:09:18,2.945479,92.03,33.84
11:09:18,2.936515,92.03,33.84
11:09:18,2.9411669999999996,92.03,33.84
11:09:18,2.9411669999999996,92.03,33.84
11:09:19,2.942448,92.08,33.83
11:09:19,2.938606,92.08,33.83
11:09:19,2.9309220000000002,92.08,33.83
11:09:19,2.929641,92.08,33.83
11:09:20,2.928361,92.13,33.83
11:09:20,2.924519,92.13,33.83
11:09:20,2.919396,92.13,33.83
11:09:20,2.916835,92.13,33.83
11:09:21,2.916835,92.18,33.84
11:09:21,2.9142740000000003,92.18,33.84
11:09:21,2.911712,92.18,33.84
11:09:21,2.909151,92.18,33.84
11:09:22,2.90659,92.23,33.84
11:09:22,2.902748,92.23,33.84
11:09:22,2.904029,92.23,33.84
11:09:22,2.896345,92.23,33.84
11:09:23,2.893784,92.27,33.84
11:09:23,2.889942,92.27,33.84
11:09:23,2.891222,92.27,33.84
11:09:23,2.88738,92.27,33.84
11:09:24,2.8861,92.28,33.84
11:09:24,2.88738,92.28,33.84
11:09:24,2.884819,92.28,33.84
11:09:24,2.883538,92.28,33.84
11:09:25,2.875854,92.3,33.83
11:09:25,2.874574,92.3,33.83
11:09:25,2.868171,92.3,33.83
11:09:25,2.8694509999999998,92.3,33.83
11:09:26,2.864329,92.33,33.87
11:09:26,2.857926,92.33,33.87
11:09:26,2.856645,92.33,33.87
11:09:26,2.855364,92.33,33.87
11:09:27,2.856645,92.38,33.84
11:09:27,2.8528029999999998,92.38,33.84
11:09:27,2.848961,92.38,33.84
11:09:27,2.843839,92.38,33.84
11:09:28,2.8399970000000003,92.43,33.84
11:09:28,2.8361549999999998,92.43,33.84
11:09:28,2.831032,92.43,33.84
11:09:28,2.8271900000000003,92.43,33.84
11:09:29,2.831032,92.48,33.84
11:09:29,2.82591,92.48,33.84
11:09:29,2.8271900000000003,92.48,33.84
11:09:29,2.8233490000000003,92.48,33.84
11:09:30,2.816945,92.47,33.83
11:09:30,2.816945,92.47,33.83
11:09:30,2.814384,92.47,33.83
11:09:30,2.810542,92.47,33.83
11:09:31,2.8067,92.47,33.83
11:09:31,2.802858,92.47,33.83
11:09:31,2.800297,92.47,33.83
11:09:31,2.799016,92.47,33.83
11:09:32,2.797736,92.47,33.83
11:09:32,2.796455,92.47,33.83
11:09:32,2.793894,92.47,33.83
11:09:32,2.790052,92.47,33.83
11:09:33,2.78621,92.43,33.84
11:09:33,2.782368,92.43,33.84
11:09:33,2.782368,92.43,33.84
11:09:33,2.781087,92.43,33.84
11:09:34,2.774684,92.38,33.84
11:09:34,2.7759650000000002,92.38,33.84
11:09:34,2.773404,92.38,33.84
11:09:34,2.773404,92.38,33.84
11:09:35,2.770842,92.35,33.84
11:09:35,2.768281,92.35,33.84
11:09:35,2.763159,92.35,33.84
11:09:35,2.760597,92.35,33.84
11:09:36,2.755475,92.33,33.84
11:09:36,2.752913,92.33,33.84
11:09:36,2.750352,92.33,33.84
11:09:36,2.747791,92.33,33.84
11:09:37,2.74523,92.35,33.83
11:09:37,2.749072,92.35,33.83
11:09:37,2.743949,92.35,33.83
11:09:37,2.742668,92.35,33.83
11:09:38,2.740107,92.38,33.83
11:09:38,2.736265,92.38,33.83
11:09:38,2.733704,92.38,33.83
11:09:38,2.733704,92.38,33.83
11:09:39,2.731143,92.42,33.83
11:09:39,2.7273009999999998,92.42,33.83
11:09:39,2.724739,92.42,33.83
11:09:39,2.72602,92.42,33.83
11:09:40,2.72602,92.43,33.83
11:09:40,2.719617,92.43,33.83
11:09:40,2.720897,92.43,33.83
11:09:40,2.7144939999999997,92.43,33.83
11:09:41,2.711933,92.45,33.83
11:09:41,2.710652,92.45,33.83
11:09:41,2.709372,92.45,33.83
11:09:41,2.7144939999999997,92.45,33.83
11:09:42,2.709372,92.47,33.83
11:09:42,2.708091,92.47,33.83
11:09:42,2.70553,92.47,33.83
11:09:42,2.70553,92.47,33.83
11:09:43,2.702969,92.47,33.83
11:09:43,2.7016880000000003,92.47,33.83
11:09:43,2.70553,92.47,33.83
11:09:43,2.694004,92.47,33.83
11:09:44,2.690162,92.45,33.81
11:09:44,2.690162,92.45,33.81
11:09:44,2.6837590000000002,92.45,33.81
11:09:44,2.6811979999999997,92.45,33.81
11:09:45,2.676075,92.45,33.83
11:09:45,2.6799169999999997,92.45,33.83
11:09:45,2.673514,92.45,33.83
11:09:45,2.6696720000000003,92.45,33.83
11:09:46,2.66455,92.43,33.83
11:09:46,2.6671110000000002,92.43,33.83
11:09:46,2.6696720000000003,92.43,33.83
11:09:46,2.668391,92.43,33.83
11:09:47,2.6632689999999997,92.42,33.81
11:09:47,2.660707,92.42,33.81
11:09:47,2.656866,92.42,33.81
11:09:47,2.656866,92.42,33.81
11:09:48,2.658146,92.4,33.81
11:09:48,2.660707,92.4,33.81
11:09:48,2.661988,92.4,33.81
11:09:48,2.656866,92.4,33.81
11:09:49,2.656866,92.37,33.83
11:09:49,2.6530240000000003,92.37,33.83
11:09:49,2.659427,92.37,33.83
11:09:49,2.6671110000000002,92.37,33.83
11:09:50,2.674795,92.32,33.83
11:09:50,2.6786369999999997,92.32,33.83
11:09:50,2.6811979999999997,92.32,33.83
11:09:50,2.6863200000000003,92.32,33.83
11:09:51,2.6850400000000003,92.2,33.81
11:09:51,2.6863200000000003,92.2,33.81
11:09:51,2.694004,92.2,33.81
11:09:51,2.70553,92.2,33.81
11:09:52,2.710652,92.1,33.83
11:09:52,2.718336,92.1,33.83
11:09:52,2.723459,92.1,33.83
11:09:52,2.724739,92.1,33.83
11:09:53,2.722178,92.05,33.81
11:09:53,2.72602,92.05,33.81
11:09:53,2.711933,92.05,33.81
11:09:53,2.70553,92.05,33.81
11:09:54,2.696565,92.02,33.83
11:09:54,2.7016880000000003,92.02,33.83
11:09:54,2.7042490000000003,92.02,33.83
11:09:54,2.715775,92.02,33.83
11:09:55,2.731143,92.0,33.83
11:09:55,2.74523,92.0,33.83
11:09:55,2.750352,92.0,33.83
11:09:55,2.754194,92.0,33.83
11:09:56,2.752913,92.0,33.81
11:09:56,2.742668,92.0,33.81
11:09:56,2.737546,92.0,33.81
11:09:56,2.731143,92.0,33.81
11:09:57,2.723459,91.98,33.81
11:09:57,2.720897,91.98,33.81
11:09:57,2.718336,91.98,33.81
11:09:57,2.7273009999999998,91.98,33.81
11:09:58,2.729862,91.97,33.81
11:09:58,2.719617,91.97,33.81
11:09:58,2.719617,91.97,33.81
11:09:58,2.724739,91.97,33.81
11:09:59,2.731143,91.9,33.79
11:09:59,2.755475,91.9,33.79
11:09:59,2.773404,91.9,33.79
11:09:59,2.782368,91.9,33.79
11:10:00,2.781087,91.9,33.79
11:10:00,2.791332,91.9,33.79
11:10:00,2.802858,91.9,33.79
11:10:00,2.814384,91.9,33.79
11:10:01,2.8182259999999997,91.88,33.83
11:10:01,2.8233490000000003,91.88,33.83
11:10:01,2.8361549999999998,91.88,33.83
11:10:01,2.854084,91.88,33.83
11:10:02,2.864329,91.87,33.81
11:10:02,2.879697,91.87,33.81
11:10:02,2.88738,91.87,33.81
11:10:02,2.896345,91.87,33.81
11:10:03,2.895064,91.85,33.81
11:10:03,2.892503,91.85,33.81
11:10:03,2.8861,91.85,33.81
11:10:03,2.882258,91.85,33.81
11:10:04,2.870732,91.85,33.81
11:10:04,2.861768,91.85,33.81
11:10:04,2.8528029999999998,91.85,33.81
11:10:04,2.8464,91.85,33.81
11:10:05,2.8361549999999998,91.87,33.81
11:10:05,2.832313,91.87,33.81
11:10:05,2.8271900000000003,91.87,33.81
11:10:05,2.8246290000000003,91.87,33.81
11:10:06,2.8195069999999998,91.9,33.81
11:10:06,2.815665,91.9,33.81
11:10:06,2.813103,91.9,33.81
11:10:06,2.8079810000000003,91.9,33.81
11:10:07,2.804139,91.92,33.79
11:10:07,2.8067,91.92,33.79
11:10:07,2.800297,91.92,33.79
11:10:07,2.7926130000000002,91.92,33.79
11:10:08,2.78621,91.88,33.79
11:10:08,2.783649,91.88,33.79
11:10:08,2.779807,91.88,33.79
11:10:08,2.777246,91.88,33.79
11:10:09,2.774684,91.82,33.83
11:10:09,2.773404,91.82,33.83
11:10:09,2.767,91.82,33.83
11:10:09,2.763159,91.82,33.83
11:10:10,2.760597,91.72,33.81
11:10:10,2.760597,91.72,33.81
11:10:10,2.752913,91.72,33.81
11:10:10,2.751633,91.72,33.81
11:10:11,2.749072,91.57,33.81
11:10:11,2.749072,91.57,33.81
11:10:11,2.749072,91.57,33.81
11:10:11,2.754194,91.57,33.81
11:10:12,2.756755,91.47,33.79
11:10:12,2.759317,91.47,33.79
11:10:12,2.760597,91.47,33.79
11:10:12,2.758036,91.47,33.79
11:10:13,2.755475,91.37,33.81
11:10:13,2.747791,91.37,33.81
11:10:13,2.74523,91.37,33.81
11:10:13,2.742668,91.37,33.81
11:10:14,2.736265,91.25,33.81
11:10:14,2.733704,91.25,33.81
11:10:14,2.728581,91.25,33.81
11:10:14,2.7273009999999998,91.25,33.81
11:10:15,2.722178,91.15,33.81
11:10:15,2.720897,91.15,33.81
11:10:15,2.715775,91.15,33.81
11:10:15,2.7144939999999997,91.15,33.81
11:10:16,2.709372,91.03,33.79
11:10:16,2.70681,91.03,33.79
11:10:16,2.700407,91.03,33.79
11:10:16,2.702969,91.03,33.79
11:10:17,2.700407,90.9,33.79
11:10:17,2.699127,90.9,33.79
11:10:17,2.700407,90.9,33.79
11:10:17,2.692724,90.9,33.79
11:10:18,2.690162,90.75,33.79
11:10:18,2.688882,90.75,33.79
11:10:18,2.690162,90.75,33.79
11:10:18,2.688882,90.75,33.79
11:10:19,2.6824779999999997,90.6,33.79
11:10:19,2.6824779999999997,90.6,33.79
11:10:19,2.6837590000000002,90.6,33.79
11:10:19,2.674795,90.6,33.79
11:10:20,2.6722330000000003,90.45,33.81
11:10:20,2.6671110000000002,90.45,33.81
11:10:20,2.66455,90.45,33.81
11:10:20,2.668391,90.45,33.81
11:10:21,2.6671110000000002,90.28,33.81
11:10:21,2.7042490000000003,90.28,33.81
11:10:21,2.724739,90.28,33.81
11:10:21,2.751633,90.28,33.81
11:10:22,2.764439,90.13,33.81
11:10:22,2.782368,90.13,33.81
11:10:22,2.797736,90.13,33.81
11:10:22,2.8220680000000002,90.13,33.81
11:10:23,2.8464,90.02,33.79
11:10:23,2.863048,90.02,33.79
11:10:23,2.873293,90.02,33.79
11:10:23,2.884819,90.02,33.79
11:10:24,2.891222,89.92,33.77
11:10:24,2.901467,89.92,33.77
11:10:24,2.912993,89.92,33.77
11:10:24,2.9334830000000003,89.92,33.77
11:10:25,2.9565349999999997,89.83,33.81
11:10:25,2.9783060000000003,89.83,33.81
11:10:25,2.9911119999999998,89.83,33.81
11:10:25,3.000076,89.83,33.81
11:10:26,2.997515,89.75,33.77
11:10:26,2.994954,89.75,33.77
11:10:26,2.9821470000000003,89.75,33.77
11:10:26,2.970622,89.75,33.77
11:10:27,2.957815,89.68,33.79
11:10:27,2.9462900000000003,89.68,33.79
11:10:27,2.936044,89.68,33.79
11:10:27,2.92708,89.68,33.79
11:10:28,2.920677,89.63,33.79
11:10:28,2.90659,89.63,33.79
11:10:28,2.905309,89.63,33.79
11:10:28,2.898906,89.63,33.79
11:10:29,2.898906,89.6,33.79
11:10:29,2.900187,89.6,33.79
11:10:29,2.905309,89.6,33.79
11:10:29,2.905309,89.6,33.79
11:10:30,2.909151,89.6,33.79
11:10:30,2.909151,89.6,33.79
11:10:30,2.911712,89.6,33.79
11:10:30,2.909151,89.6,33.79
11:10:31,2.905309,89.62,33.79
11:10:31,2.905309,89.62,33.79
11:10:31,2.897625,89.62,33.79
11:10:31,2.897625,89.62,33.79
11:10:32,2.895064,89.65,33.79
11:10:32,2.912993,89.65,33.79
11:10:32,2.934764,89.65,33.79
11:10:32,2.971902,89.65,33.79
11:10:33,2.998796,89.67,33.81
11:10:33,3.019286,89.67,33.81
11:10:33,3.032092,89.67,33.81
11:10:33,3.041057,89.67,33.81
11:10:34,3.043618,89.67,33.79
11:10:34,3.043618,89.67,33.79
11:10:34,3.048741,89.67,33.79
11:10:34,3.051302,89.67,33.79
11:10:35,3.042337,89.65,33.79
11:10:35,3.033373,89.65,33.79
11:10:35,3.025689,89.65,33.79
11:10:35,3.016725,89.65,33.79
11:10:36,3.002638,89.6,33.79
11:10:36,2.994954,89.6,33.79
11:10:36,2.985989,89.6,33.79
11:10:36,2.980867,89.6,33.79
11:10:37,2.971902,89.55,33.77
11:10:37,2.971902,89.55,33.77
11:10:37,2.971902,89.55,33.77
11:10:37,2.984709,89.55,33.77
11:10:38,3.001357,89.47,33.81
11:10:38,3.019286,89.47,33.81
11:10:38,3.034654,89.47,33.81
11:10:38,3.046179,89.47,33.81
11:10:39,3.046179,89.42,33.79
11:10:39,3.042337,89.42,33.79
11:10:39,3.043618,89.42,33.79
11:10:39,3.037215,89.42,33.79
11:10:40,3.035934,89.37,33.79
11:10:40,3.038496,89.37,33.79
11:10:40,3.039776,89.37,33.79
11:10:40,3.042337,89.37,33.79
11:10:41,3.055144,89.33,33.77
11:10:41,3.074353,89.33,33.77
11:10:41,3.0974049999999997,89.33,33.77
11:10:41,3.1204560000000003,89.33,33.77
11:10:42,3.139666,89.3,33.79
11:10:42,3.163998,89.3,33.79
11:10:42,3.174243,89.3,33.79
11:10:42,3.179366,89.3,33.79
11:10:43,3.178085,89.27,33.79
11:10:43,3.183208,89.27,33.79
11:10:43,3.199856,89.27,33.79
11:10:43,3.230591,89.27,33.79
11:10:44,3.274133,89.25,33.79
11:10:44,3.307429,89.25,33.79
11:10:44,3.326639,89.25,33.79
11:10:44,3.3368839999999995,89.25,33.79
11:10:45,3.333042,89.23,33.79
11:10:45,3.317674,89.23,33.79
11:10:45,3.2971839999999997,89.23,33.79
11:10:45,3.274133,89.23,33.79
11:10:46,3.254923,89.22,33.79
11:10:46,3.235713,89.22,33.79
11:10:46,3.216504,89.22,33.79
11:10:46,3.206259,89.22,33.79
11:10:47,3.198575,89.23,33.79
11:10:47,3.1921720000000002,89.23,33.79
11:10:47,3.185769,89.23,33.79
11:10:47,3.176804,89.23,33.79
11:10:48,3.172962,89.22,33.79
11:10:48,3.171682,89.22,33.79
11:10:48,3.163998,89.22,33.79
11:10:48,3.156314,89.22,33.79
11:10:49,3.146069,89.22,33.79
11:10:49,3.14735,89.22,33.79
11:10:49,3.146069,89.22,33.79
11:10:49,3.138385,89.22,33.79
11:10:50,3.142227,89.22,33.79
11:10:50,3.135824,89.22,33.79
11:10:50,3.137105,89.22,33.79
11:10:50,3.156314,89.22,33.79
11:10:51,3.193453,89.28,33.81
11:10:51,3.235713,89.28,33.81
11:10:51,3.2690099999999997,89.28,33.81
11:10:51,3.298465,89.28,33.81
11:10:52,3.3163940000000003,89.32,33.79
11:10:52,3.324078,89.32,33.79
11:10:52,3.3163940000000003,89.32,33.79
11:10:52,3.311271,89.32,33.79
11:10:53,3.26773,89.32,33.81
11:10:53,3.2395560000000003,89.32,33.81
11:10:53,3.2241880000000003,89.32,33.81
11:10:53,3.219065,89.32,33.81
11:10:54,3.2177849999999997,89.28,33.79
11:10:54,3.212662,89.28,33.79
11:10:54,3.2088200000000002,89.28,33.79
11:10:54,3.2177849999999997,89.28,33.79
11:10:55,3.2241880000000003,89.23,33.81
11:10:55,3.234433,89.23,33.81
11:10:55,3.2433970000000003,89.23,33.81
11:10:55,3.2498009999999997,89.23,33.81
11:10:56,3.256204,89.17,33.81
11:10:56,3.257484,89.17,33.81
11:10:56,3.262607,89.17,33.81
11:10:56,3.271571,89.17,33.81
11:10:57,3.280536,89.07,33.79
11:10:57,3.290781,89.07,33.79
11:10:57,3.292062,89.07,33.79
11:10:57,3.290781,89.07,33.79
11:10:58,3.293342,88.97,33.79
11:10:58,3.293342,88.97,33.79
11:10:58,3.2971839999999997,88.97,33.79
11:10:58,3.3010260000000002,88.97,33.79
11:10:59,3.306149,88.88,33.77
11:10:59,3.306149,88.88,33.77
11:10:59,3.307429,88.88,33.77
11:10:59,3.307429,88.88,33.77
11:11:00,3.3138330000000003,88.73,33.81
11:11:00,3.330481,88.73,33.81
11:11:00,3.335603,88.73,33.81
11:11:00,3.3420059999999996,88.73,33.81
11:11:01,3.34841,88.62,33.83
11:11:01,3.3522519999999996,88.62,33.83
11:11:01,3.353532,88.62,33.83
11:11:01,3.3496900000000003,88.62,33.83
11:11:02,3.344568,88.52,33.81
11:11:02,3.3471290000000002,88.52,33.81
11:11:02,3.344568,88.52,33.81
11:11:02,3.3368839999999995,88.52,33.81
11:11:03,3.3368839999999995,88.43,33.79
11:11:03,3.338165,88.43,33.79
11:11:03,3.3368839999999995,88.43,33.79
11:11:03,3.3292,88.43,33.79
11:11:04,3.322797,88.33,33.83
11:11:04,3.3151129999999998,88.33,33.83
11:11:04,3.3151129999999998,88.33,33.83
11:11:04,3.3163940000000003,88.33,33.83
11:11:05,3.320236,88.25,33.81
11:11:05,3.3189550000000003,88.25,33.81
11:11:05,3.322797,88.25,33.81
11:11:05,3.320236,88.25,33.81
11:11:06,3.320236,88.17,33.81
11:11:06,3.325358,88.17,33.81
11:11:06,3.325358,88.17,33.81
11:11:06,3.325358,88.17,33.81
11:11:07,3.3292,88.1,33.79
11:11:07,3.3215160000000004,88.1,33.79
11:11:07,3.3125519999999997,88.1,33.79
11:11:07,3.304868,88.1,33.79
11:11:08,3.3010260000000002,88.08,33.81
11:11:08,3.290781,88.08,33.81
11:11:08,3.2971839999999997,88.08,33.81
11:11:08,3.295903,88.08,33.81
11:11:09,3.299746,88.05,33.81
11:11:09,3.302307,88.05,33.81
11:11:09,3.3125519999999997,88.05,33.81
11:11:09,3.3163940000000003,88.05,33.81
11:11:10,3.3138330000000003,88.05,33.81
11:11:10,3.3125519999999997,88.05,33.81
11:11:10,3.3125519999999997,88.05,33.81
11:11:10,3.317674,88.05,33.81
11:11:11,3.325358,88.12,33.81
11:11:11,3.343287,88.12,33.81
11:11:11,3.366338,88.12,33.81
11:11:11,3.3983550000000005,88.12,33.81
11:11:12,3.432932,88.15,33.84
11:11:12,3.46926,88.15,33.84
11:11:12,3.498714,88.15,33.84
11:11:12,3.507679,88.15,33.84
11:11:13,3.5166440000000003,88.2,33.83
11:11:13,3.515363,88.2,33.83
11:11:13,3.5166440000000003,88.2,33.83
11:11:13,3.5089599999999996,88.2,33.83
11:11:14,3.4999949999999997,88.3,33.81
11:11:14,3.496153,88.3,33.81
11:11:14,3.478224,88.3,33.81
11:11:14,3.4705410000000003,88.3,33.81
11:11:15,3.465418,88.4,33.83
11:11:15,3.461576,88.4,33.83
11:11:15,3.457734,88.4,33.83
11:11:15,3.4551730000000003,88.4,33.83
11:11:16,3.459015,88.52,33.83
11:11:16,3.471821,88.52,33.83
11:11:16,3.4999949999999997,88.52,33.83
11:11:16,3.52945,88.52,33.83
11:11:17,3.548659,88.63,33.83
11:11:17,3.5601849999999997,88.63,33.83
11:11:17,3.564027,88.63,33.83
11:11:17,3.5653080000000004,88.63,33.83
11:11:18,3.5653080000000004,88.77,33.83
11:11:18,3.5755529999999998,88.77,33.83
11:11:18,3.580675,88.77,33.83
11:11:18,3.587079,88.77,33.83
11:11:19,3.58964,88.88,33.83
11:11:19,3.5947620000000002,88.88,33.83
11:11:19,3.587079,88.88,33.83
11:11:19,3.581956,88.88,33.83
11:11:20,3.5729910000000005,89.02,33.81
11:11:20,3.5614660000000002,89.02,33.81
11:11:20,3.5576239999999997,89.02,33.81
11:11:20,3.564027,89.02,33.81
11:11:21,3.583236,89.17,33.81
11:11:21,3.6075690000000002,89.17,33.81
11:11:21,3.617814,89.17,33.81
11:11:21,3.631901,89.17,33.81
11:11:22,3.635743,89.32,33.83
11:11:22,3.6408650000000002,89.32,33.83
11:11:22,3.6587940000000003,89.32,33.83
11:11:22,3.6920910000000005,89.32,33.83
11:11:23,3.724107,89.45,33.83
11:11:23,3.745878,89.45,33.83
11:11:23,3.766368,89.45,33.83
11:11:23,3.7676480000000003,89.45,33.83
11:11:24,3.753561,89.55,33.83
11:11:24,3.738194,89.55,33.83
11:11:24,3.713861,89.55,33.83
11:11:24,3.685688,89.55,33.83
11:11:25,3.6677589999999998,89.62,33.84
11:11:25,3.6511099999999996,89.62,33.84
11:11:25,3.635743,89.62,33.84
11:11:25,3.6280589999999995,89.62,33.84
11:11:26,3.635743,89.65,33.83
11:11:26,3.6587940000000003,89.65,33.83
11:11:26,3.6716010000000003,89.65,33.83
11:11:26,3.6818459999999997,89.65,33.83
11:11:27,3.683126,89.65,33.83
11:11:27,3.6792839999999996,89.65,33.83
11:11:27,3.67032,89.65,33.83
11:11:27,3.657513,89.65,33.83
11:11:28,3.652391,89.63,33.83
11:11:28,3.631901,89.63,33.83
11:11:28,3.619094,89.63,33.83
11:11:28,3.6152519999999995,89.63,33.83
11:11:29,3.626778,89.62,33.84
11:11:29,3.617814,89.62,33.84
11:11:29,3.6254980000000003,89.62,33.84
11:11:29,3.64983,89.62,33.84
11:11:30,3.6511099999999996,89.55,33.84
11:11:30,3.538414,89.55,33.84
11:11:30,3.483347,89.55,33.84
11:11:30,3.4641370000000005,89.55,33.84
11:11:31,3.459015,89.48,33.84
11:11:31,3.452611,89.48,33.84
11:11:31,3.4423660000000003,89.48,33.84
11:11:31,3.434683,89.48,33.84
11:11:32,3.416754,89.4,33.84
11:11:32,3.406509,89.4,33.84
11:11:32,3.398825,89.4,33.84
11:11:32,3.391141,89.4,33.84
11:11:33,3.368089,89.33,33.84
11:11:33,3.352722,89.33,33.84
11:11:33,3.352722,89.33,33.84
11:11:33,3.350161,89.33,33.84
11:11:34,3.332232,89.27,33.84
11:11:34,3.320706,89.27,33.84
11:11:34,3.3219870000000005,89.27,33.84
11:11:34,3.341196,89.27,33.84
11:11:35,3.3770540000000002,89.18,33.87
11:11:35,3.419315,89.18,33.87
11:11:35,3.462857,89.18,33.87
11:11:35,3.505118,89.18,33.87
11:11:36,3.5422559999999996,89.08,33.83
11:11:36,3.5614660000000002,89.08,33.83
11:11:36,3.5473790000000003,89.08,33.83
11:11:36,3.525608,89.08,33.83
11:11:37,3.498714,88.93,33.84
11:11:37,3.476944,88.93,33.84
11:11:37,3.4551730000000003,88.93,33.84
11:11:37,3.4423660000000003,88.93,33.84
11:11:38,3.42956,88.88,33.84
11:11:38,3.4205959999999997,88.88,33.84
11:11:38,3.4103510000000004,88.88,33.84
11:11:38,3.4052279999999997,88.88,33.84
11:11:39,3.3975440000000003,88.83,33.84
11:11:39,3.38858,88.83,33.84
11:11:39,3.386019,88.83,33.84
11:11:39,3.3821769999999995,88.83,33.84
11:11:40,3.374493,88.78,33.84
11:11:40,3.360406,88.78,33.84
11:11:40,3.3463190000000003,88.78,33.84
11:11:40,3.3424769999999997,88.78,33.84
11:11:41,3.337354,88.73,33.84
11:11:41,3.330951,88.73,33.84
11:11:41,3.3245480000000005,88.73,33.84
11:11:41,3.320706,88.73,33.84
11:11:42,3.310461,88.7,33.89
11:11:42,3.307899,88.7,33.89
11:11:42,3.3002160000000003,88.7,33.89
11:11:42,3.297654,88.7,33.89
11:11:43,3.2963739999999997,88.67,33.87
11:11:43,3.292532,88.67,33.87
11:11:43,3.302777,88.67,33.87
11:11:43,3.305338,88.67,33.87
11:11:44,3.307899,88.62,33.87
11:11:44,3.310461,88.62,33.87
11:11:44,3.3066190000000004,88.62,33.87
11:11:44,3.305338,88.62,33.87
11:11:45,3.310461,88.57,33.87
11:11:45,3.319425,88.57,33.87
11:11:45,3.32839,88.57,33.87
11:11:45,3.3335120000000003,88.57,33.87
11:11:46,3.3399160000000006,88.53,33.87
11:11:46,3.3399160000000006,88.53,33.87
11:11:46,3.343757,88.53,33.87
11:11:46,3.337354,88.53,33.87
11:11:47,3.336074,88.43,33.87
11:11:47,3.337354,88.43,33.87
11:11:47,3.338635,88.43,33.87
11:11:47,3.3399160000000006,88.43,33.87
11:11:48,3.337354,88.35,33.87
11:11:48,3.332232,88.35,33.87
11:11:48,3.320706,88.35,33.87
11:11:48,3.319425,88.35,33.87
11:11:49,3.323267,88.23,33.87
11:11:49,3.336074,88.23,33.87
11:11:49,3.3450379999999997,88.23,33.87
11:11:49,3.360406,88.23,33.87
11:11:50,3.365528,88.08,33.87
11:11:50,3.3668089999999995,88.08,33.87
11:11:50,3.365528,88.08,33.87
11:11:50,3.3642480000000003,88.08,33.87
11:11:51,3.3642480000000003,87.93,33.87
11:11:51,3.3668089999999995,87.93,33.87
11:11:51,3.3821769999999995,87.93,33.87
11:11:51,3.4282790000000003,87.93,33.87
11:11:52,3.4884690000000003,87.78,33.84
11:11:52,3.551221,87.78,33.84
11:11:52,3.598604,87.78,33.84
11:11:52,3.619094,87.78,33.84
11:11:53,3.631901,87.63,33.87
11:11:53,3.6280589999999995,87.63,33.87
11:11:53,3.6152519999999995,87.63,33.87
11:11:53,3.596043,87.63,33.87
11:11:54,3.5601849999999997,87.52,33.87
11:11:54,3.53073,87.52,33.87
11:11:54,3.5012760000000003,87.52,33.87
11:11:54,3.4820660000000005,87.52,33.87
11:11:55,3.4641370000000005,87.38,33.89
11:11:55,3.4513309999999997,87.38,33.89
11:11:55,3.434683,87.38,33.89
11:11:55,3.423157,87.38,33.89
11:11:56,3.414192,87.25,33.91
11:11:56,3.4052279999999997,87.25,33.91
11:11:56,3.398825,87.25,33.91
11:11:56,3.38858,87.25,33.91
11:11:57,3.3847379999999996,87.15,33.89
11:11:57,3.383457,87.15,33.89
11:11:57,3.3847379999999996,87.15,33.89
11:11:57,3.401386,87.15,33.89
11:11:58,3.4180339999999996,87.07,33.91
11:11:58,3.441086,87.07,33.91
11:11:58,3.457734,87.07,33.91
11:11:58,3.46926,87.07,33.91
11:11:59,3.46926,87.0,33.89
11:11:59,3.478224,87.0,33.89
11:11:59,3.487189,87.0,33.89
11:11:59,3.520485,87.0,33.89
11:12:00,3.558904,86.92,33.91
11:12:00,3.6011660000000005,86.92,33.91
11:12:00,3.6254980000000003,86.92,33.91
11:12:00,3.638304,86.92,33.91
11:12:01,3.6511099999999996,86.83,33.89
11:12:01,3.660075,86.83,33.89
11:12:01,3.6562330000000003,86.83,33.89
11:12:01,3.64983,86.83,33.89
11:12:02,3.6408650000000002,86.73,33.89
11:12:02,3.626778,86.73,33.89
11:12:02,3.616533,86.73,33.89
11:12:02,3.619094,86.73,33.89
11:12:03,3.6408650000000002,86.65,33.89
11:12:03,3.6677589999999998,86.65,33.89
11:12:03,3.69081,86.65,33.89
11:12:03,3.698494,86.65,33.89
11:12:04,3.706178,86.58,33.91
11:12:04,3.708739,86.58,33.91
11:12:04,3.7074580000000004,86.58,33.91
11:12:04,3.695933,86.58,33.91
11:12:05,3.680565,86.55,33.91
11:12:05,3.6613550000000004,86.55,33.91
11:12:05,3.6434260000000003,86.55,33.91
11:12:05,3.622936,86.55,33.91
11:12:06,3.599885,86.52,33.93
11:12:06,3.576833,86.52,33.93
11:12:06,3.553782,86.52,33.93
11:12:06,3.543537,86.52,33.93
11:12:07,3.53073,86.5,33.91
11:12:07,3.5217660000000004,86.5,33.91
11:12:07,3.511521,86.5,33.91
11:12:07,3.507679,86.5,33.91
11:12:08,3.498714,86.48,33.93
11:12:08,3.4884690000000003,86.48,33.93
11:12:08,3.4846269999999997,86.48,33.93
11:12:08,3.478224,86.48,33.93
11:12:09,3.474382,86.53,33.93
11:12:09,3.475663,86.53,33.93
11:12:09,3.478224,86.53,33.93
11:12:09,3.483347,86.53,33.93
11:12:10,3.487189,86.55,33.95
11:12:10,3.4859080000000002,86.55,33.95
11:12:10,3.483347,86.55,33.95
11:12:10,3.480786,86.55,33.95
11:12:11,3.475663,86.55,33.91
11:12:11,3.478224,86.55,33.91
11:12:11,3.4666989999999998,86.55,33.91
11:12:11,3.457734,86.55,33.91
11:12:12,3.452611,86.55,33.93
11:12:12,3.457734,86.55,33.93
11:12:12,3.452611,86.55,33.93
11:12:12,3.4513309999999997,86.55,33.93
11:12:13,3.4487699999999997,86.55,33.95
11:12:13,3.4423660000000003,86.55,33.95
11:12:13,3.441086,86.55,33.95
11:12:13,3.4398050000000002,86.55,33.95
11:12:14,3.4385239999999997,86.5,33.95
11:12:14,3.437244,86.5,33.95
11:12:14,3.4334019999999996,86.5,33.95
11:12:14,3.4308410000000005,86.5,33.95
11:12:15,3.4282790000000003,86.43,33.93
11:12:15,3.425718,86.43,33.93
11:12:15,3.421876,86.43,33.93
11:12:15,3.4205959999999997,86.43,33.93
11:12:16,3.424438,86.37,33.93
11:12:16,3.447489,86.37,33.93
11:12:16,3.465418,86.37,33.93
11:12:16,3.507679,86.37,33.93
11:12:17,3.5576239999999997,86.3,33.93
11:12:17,3.613972,86.3,33.93
11:12:17,3.6549519999999998,86.3,33.93
11:12:17,3.685688,86.3,33.93
11:12:18,3.6972129999999996,86.25,33.97
11:12:18,3.706178,86.25,33.97
11:12:18,3.7228260000000004,86.25,33.97
11:12:18,3.734352,86.25,33.97
11:12:19,3.729229,86.22,33.93
11:12:19,3.733071,86.22,33.93
11:12:19,3.733071,86.22,33.93
11:12:19,3.720265,86.22,33.93
11:12:20,3.702336,86.17,33.95
11:12:20,3.6946519999999996,86.17,33.95
11:12:20,3.672881,86.17,33.95
11:12:20,3.6792839999999996,86.17,33.95
11:12:21,3.721545,86.15,33.95
11:12:21,3.7804550000000003,86.15,33.95
11:12:21,3.827838,86.15,33.95
11:12:21,3.8893089999999995,86.15,33.95
11:12:22,3.9891980000000005,86.13,33.95
11:12:22,4.090718,86.13,33.95
11:12:22,4.117611,86.13,33.95
11:12:22,4.104805000000001,86.13,33.95
11:12:23,4.107366000000001,86.15,33.93
11:12:23,4.138101,86.15,33.93
11:12:23,4.198291,86.15,33.93
11:12:23,4.198291,86.15,33.93
11:12:24,4.163714,86.2,33.95
11:12:24,4.152188,86.2,33.95
11:12:24,4.148346,86.2,33.95
11:12:24,4.108647,86.2,33.95
11:12:25,4.0305279999999994,86.28,33.95
11:12:25,3.9793019999999997,86.28,33.95
11:12:25,3.95497,86.28,33.95
11:12:25,3.942164,86.28,33.95
11:12:26,3.9203930000000002,86.42,33.97
11:12:26,3.898622,86.42,33.97
11:12:26,3.887096,86.42,33.97
11:12:26,3.883255,86.42,33.97
11:12:27,3.896061,86.6,33.99
11:12:27,3.9075870000000004,86.6,33.99
11:12:27,3.9280769999999996,86.6,33.99
11:12:27,3.9370410000000002,86.6,33.99
11:12:28,3.9383220000000003,86.8,33.97
11:12:28,3.935761,86.8,33.97
11:12:28,3.931919,86.8,33.97
11:12:28,3.921674,86.8,33.97
11:12:29,3.911428,87.05,33.99
11:12:29,3.9152699999999996,87.05,33.99
11:12:29,3.9306379999999996,87.05,33.99
11:12:29,3.942164,87.05,33.99
11:12:30,3.935761,87.35,33.97
11:12:30,3.9331989999999997,87.35,33.97
11:12:30,3.947286,87.35,33.97
11:12:30,3.947286,87.35,33.97
11:12:31,3.9408830000000004,87.67,33.99
11:12:31,3.9511279999999998,87.67,33.99
11:12:31,3.960093,87.67,33.99
11:12:31,3.9818629999999997,87.67,33.99
11:12:32,4.002354,87.98,33.97
11:12:32,4.01516,87.98,33.97
11:12:32,4.01516,87.98,33.97
11:12:32,4.017721,87.98,33.97
11:12:33,4.008757,88.35,33.97
11:12:33,4.0049150000000004,88.35,33.97
11:12:33,3.986986,88.35,33.97
11:12:33,3.9767410000000005,88.35,33.97
11:12:34,3.966496,88.7,33.99
11:12:34,3.952409,88.7,33.99
11:12:34,3.9408830000000004,88.7,33.99
11:12:34,3.9383220000000003,88.7,33.99
11:12:35,3.9408830000000004,89.05,33.99
11:12:35,3.944725,89.05,33.99
11:12:35,3.9485669999999997,89.05,33.99
11:12:35,3.952409,89.05,33.99
11:12:36,3.9562510000000004,89.4,33.97
11:12:36,3.952409,89.4,33.97
11:12:36,3.9511279999999998,89.4,33.97
11:12:36,3.939603,89.4,33.97
11:12:37,3.9280769999999996,89.75,33.99
11:12:37,3.916551,89.75,33.99
11:12:37,3.9075870000000004,89.75,33.99
11:12:37,3.8947800000000004,89.75,33.99
11:12:38,3.8935,90.02,33.99
11:12:38,3.885816,90.02,33.99
11:12:38,3.884535,90.02,33.99
11:12:38,3.896061,90.02,33.99
11:12:39,3.906306,90.28,33.99
11:12:39,3.929358,90.28,33.99
11:12:39,3.952409,90.28,33.99
11:12:39,3.970338,90.28,33.99
11:12:40,3.9831440000000002,90.57,34.03
11:12:40,3.986986,90.57,34.03
11:12:40,4.0049150000000004,90.57,34.03
11:12:40,4.03565,90.57,34.03
11:12:41,4.076631,90.68,34.03
11:12:41,4.109927,90.68,34.03
11:12:41,4.13554,90.68,34.03
11:12:41,4.1445050000000005,90.68,34.03
11:12:42,4.152188,90.75,34.03
11:12:42,4.159872,90.75,34.03
11:12:42,4.164994999999999,90.75,34.03
11:12:42,4.158591,90.75,34.03
11:12:43,4.158591,90.8,33.99
11:12:43,4.150908,90.8,33.99
11:12:43,4.149627,90.8,33.99
11:12:43,4.138101,90.8,33.99
11:12:44,4.129137,90.87,33.99
11:12:44,4.130417,90.87,33.99
11:12:44,4.13554,90.87,33.99
11:12:44,4.141943,90.87,33.99
11:12:45,4.148346,90.93,34.0
11:12:45,4.158591,90.93,34.0
11:12:45,4.149627,90.93,34.0
11:12:45,4.143224,90.93,34.0
11:12:46,4.129137,90.98,34.0
11:12:46,4.11505,90.98,34.0
11:12:46,4.100963,90.98,34.0
11:12:46,4.083034,90.98,34.0
11:12:47,4.0663860000000005,90.93,34.03
11:12:47,4.065105,90.93,34.03
11:12:47,4.067666,90.93,34.03
11:12:47,4.083034,90.93,34.03
11:12:48,4.106085,90.92,33.99
11:12:48,4.126575,90.92,33.99
11:12:48,4.136821,90.92,33.99
11:12:48,4.141943,90.92,33.99
11:12:49,4.140663,90.92,33.99
11:12:49,4.132979,90.92,33.99
11:12:49,4.1278559999999995,90.92,33.99
11:12:49,4.120173,90.92,33.99
11:12:50,4.112489,90.97,34.0
11:12:50,4.102243,90.97,34.0
11:12:50,4.090718,90.97,34.0
11:12:50,4.086876,90.97,34.0
11:12:51,4.09584,91.03,33.99
11:12:51,4.11505,91.03,33.99
11:12:51,4.129137,91.03,33.99
11:12:51,4.139382,91.03,33.99
11:12:52,4.140663,91.12,34.03
11:12:52,4.13554,91.12,34.03
11:12:52,4.1252949999999995,91.12,34.03
11:12:52,4.121453,91.12,34.03
11:12:53,4.124014,91.2,34.03
11:12:53,4.124014,91.2,34.03
11:12:53,4.121453,91.2,34.03
11:12:53,4.1227339999999995,91.2,34.03
11:12:54,4.126575,91.25,34.0
11:12:54,4.107366000000001,91.25,34.0
11:12:54,4.100963,91.25,34.0
11:12:54,4.088156,91.25,34.0
11:12:55,4.106085,91.32,34.05
11:12:55,4.106085,91.32,34.05
11:12:55,4.090718,91.32,34.05
11:12:55,4.09584,91.32,34.05
11:12:56,4.048457,91.4,34.0
11:12:56,4.03565,91.4,34.0
11:12:56,4.065105,91.4,34.0
11:12:56,4.061262999999999,91.4,34.0
11:12:57,4.049737,91.48,34.03
11:12:57,4.039492,91.48,34.03
11:12:57,4.029247,91.48,34.03
11:12:57,4.045896,91.48,34.03
11:12:58,4.081753,91.55,34.03
11:12:58,4.134258999999999,91.55,34.03
11:12:58,4.158591,91.55,34.03
11:12:58,4.180362000000001,91.55,34.03
11:12:59,4.194449,91.62,34.05
11:12:59,4.179081,91.62,34.05
11:12:59,4.167555999999999,91.62,34.05
11:12:59,4.139382,91.62,34.05
11:13:00,4.126575,91.65,34.05
11:13:00,4.100963,91.65,34.05
11:13:00,4.104805000000001,91.65,34.05
11:13:00,4.104805000000001,91.65,34.05
11:13:01,4.061262999999999,91.67,34.05
11:13:01,4.058701999999999,91.67,34.05
11:13:01,4.077911,91.67,34.05
11:13:01,4.081753,91.67,34.05
11:13:02,4.074069000000001,91.68,34.03
11:13:02,4.059982,91.68,34.03
11:13:02,4.049737,91.68,34.03
11:13:02,4.049737,91.68,34.03
11:13:03,4.049737,91.7,34.05
11:13:03,4.049737,91.7,34.05
11:13:03,4.065105,91.7,34.05
11:13:03,4.063823999999999,91.7,34.05
11:13:04,4.053579,91.73,34.03
11:13:04,4.043334,91.73,34.03
11:13:04,4.042054,91.73,34.03
11:13:04,4.034369,91.73,34.03
11:13:05,4.026686,91.67,34.05
11:13:05,4.029247,91.67,34.05
11:13:05,4.017721,91.67,34.05
11:13:05,4.013879,91.67,34.05
11:13:06,4.008757,91.88,34.05
11:13:06,4.013879,91.88,34.05
11:13:06,4.020283,91.88,34.05
11:13:06,4.049737,91.88,34.05
11:13:07,4.099682,92.05,34.05
11:13:07,4.154749,92.05,34.05
11:13:07,4.2034139999999995,92.05,34.05
11:13:07,4.2341489999999995,92.05,34.05
11:13:08,4.267446,92.2,34.07
11:13:08,4.270007,92.2,34.07
11:13:08,4.253359,92.2,34.07
11:13:08,4.21622,92.2,34.07
11:13:09,4.190608,92.33,34.07
11:13:09,4.171398,92.33,34.07
11:13:09,4.152188,92.33,34.07
11:13:09,4.132979,92.33,34.07
11:13:10,4.121453,92.5,34.07
11:13:10,4.107366000000001,92.5,34.07
11:13:10,4.093279,92.5,34.07
11:13:10,4.083034,92.5,34.07
11:13:11,4.072789,92.68,34.07
11:13:11,4.0689470000000005,92.68,34.07
11:13:11,4.0663860000000005,92.68,34.07
11:13:11,4.063823999999999,92.68,34.07
11:13:12,4.059982,92.87,34.07
11:13:12,4.063823999999999,92.87,34.07
11:13:12,4.071508000000001,92.87,34.07
11:13:12,4.100963,92.87,34.07
11:13:13,4.1278559999999995,93.07,34.03
11:13:13,4.139382,93.07,34.03
11:13:13,4.150908,93.07,34.03
11:13:13,4.15603,93.07,34.03
11:13:14,4.159872,93.28,34.07
11:13:14,4.172677999999999,93.28,34.07
11:13:14,4.1778010000000005,93.28,34.07
11:13:14,4.185485,93.28,34.07
11:13:15,4.194449,93.5,34.07
11:13:15,4.200851999999999,93.5,34.07
11:13:15,4.193169,93.5,34.07
11:13:15,4.166276,93.5,34.07
11:13:16,4.154749,93.68,34.05
11:13:16,4.148346,93.68,34.05
11:13:16,4.143224,93.68,34.05
11:13:16,4.129137,93.68,34.05
11:13:17,4.11505,93.83,34.07
11:13:17,4.108647,93.83,34.07
11:13:17,4.124014,93.83,34.07
11:13:17,4.167555999999999,93.83,34.07
11:13:18,4.217501,93.93,34.07
11:13:18,4.2648839999999995,93.93,34.07
11:13:18,4.2866550000000005,93.93,34.07
11:13:18,4.289217,93.93,34.07
11:13:19,4.285375,94.0,34.11
11:13:19,4.2648839999999995,94.0,34.11
11:13:19,4.232869,94.0,34.11
11:13:19,4.205975,94.0,34.11
11:13:20,4.1778010000000005,94.03,34.11
11:13:20,4.157311,94.03,34.11
11:13:20,4.140663,94.03,34.11
11:13:20,4.1252949999999995,94.03,34.11
11:13:21,4.104805000000001,94.13,34.09
11:13:21,4.104805000000001,94.13,34.09
11:13:21,4.104805000000001,94.13,34.09
11:13:21,4.124014,94.13,34.09
11:13:22,4.141943,94.02,34.09
11:13:22,4.166276,94.02,34.09
11:13:22,4.186766,94.02,34.09
11:13:22,4.21494,94.02,34.09
11:13:23,4.239272,93.87,34.09
11:13:23,4.25592,93.87,34.09
11:13:23,4.275129,93.87,34.09
11:13:23,4.259762,93.87,34.09
11:13:24,4.253359,93.72,34.09
11:13:24,4.278971,93.72,34.09
11:13:24,4.270007,93.72,34.09
11:13:24,4.253359,93.72,34.09
11:13:25,4.227746,93.55,34.11
11:13:25,4.21622,93.55,34.11
11:13:25,4.190608,93.55,34.11
11:13:25,4.186766,93.55,34.11
11:13:26,4.190608,93.35,34.11
11:13:26,4.2226230000000005,93.35,34.11
11:13:26,4.227746,93.35,34.11
11:13:26,4.225184,93.35,34.11
11:13:27,4.217501,93.1,34.11
11:13:27,4.209817,93.1,34.11
11:13:27,4.198291,93.1,34.11
11:13:27,4.191888,93.1,34.11
11:13:28,4.185485,92.87,34.13
11:13:28,4.185485,92.87,34.13
11:13:28,4.164994999999999,92.87,34.13
11:13:28,4.157311,92.87,34.13
11:13:29,4.152188,92.6,34.13
11:13:29,4.15603,92.6,34.13
11:13:29,4.152188,92.6,34.13
11:13:29,4.152188,92.6,34.13
11:13:30,4.159872,92.33,34.11
11:13:30,4.148346,92.33,34.11
11:13:30,4.140663,92.33,34.11
11:13:30,4.13554,92.33,34.11
11:13:31,4.131698,92.05,34.11
11:13:31,4.132979,92.05,34.11
11:13:31,4.1252949999999995,92.05,34.11
11:13:31,4.121453,92.05,34.11
11:13:32,4.11505,91.78,34.13
11:13:32,4.108647,91.78,34.13
11:13:32,4.103524,91.78,34.13
11:13:32,4.097121,91.78,34.13
11:13:33,4.103524,91.47,34.13
11:13:33,4.132979,91.47,34.13
11:13:33,4.166276,91.47,34.13
11:13:33,4.212378,91.47,34.13
11:13:34,4.249516000000001,91.18,34.15
11:13:34,4.267446,91.18,34.15
11:13:34,4.280252,91.18,34.15
11:13:34,4.282813,91.18,34.15
11:13:35,4.268726,90.92,34.13
11:13:35,4.244394000000001,90.92,34.13
11:13:35,4.229026,90.92,34.13
11:13:35,4.209817,90.92,34.13
11:13:36,4.198291,90.68,34.13
11:13:36,4.186766,90.68,34.13
11:13:36,4.172677999999999,90.68,34.13
11:13:36,4.162433999999999,90.68,34.13
11:13:37,4.15603,90.48,34.15
11:13:37,4.145785,90.48,34.15
11:13:37,4.136821,90.48,34.15
11:13:37,4.129137,90.48,34.15
11:13:38,4.131698,90.3,34.13
11:13:38,4.139382,90.3,34.13
11:13:38,4.136821,90.3,34.13
11:13:38,4.140663,90.3,34.13
11:13:39,4.1227339999999995,90.08,34.15
11:13:39,4.126575,90.08,34.15
11:13:39,4.124014,90.08,34.15
11:13:39,4.11505,90.08,34.15
11:13:40,4.108647,89.87,34.15
11:13:40,4.103524,89.87,34.15
11:13:40,4.120173,89.87,34.15
11:13:40,4.131698,89.87,34.15
11:13:41,4.164994999999999,89.78,34.15
11:13:41,4.209817,89.78,34.15
11:13:41,4.25592,89.78,34.15
11:13:41,4.258481,89.78,34.15
11:13:42,4.2648839999999995,89.7,34.16
11:13:42,4.163714,89.7,34.16
11:13:42,4.103524,89.7,34.16
11:13:42,4.03565,89.7,34.16
11:13:43,3.952409,89.6,34.16
11:13:43,3.856361,89.6,34.16
11:13:43,3.849958,89.6,34.16
11:13:43,3.856361,89.6,34.16
11:13:44,3.869168,89.5,34.18
11:13:44,3.890938,89.5,34.18
11:13:44,3.8819739999999996,89.5,34.18
11:13:44,3.898622,89.5,34.18
11:13:45,3.8538,89.4,34.18
11:13:45,3.8730089999999997,89.4,34.18
11:13:45,3.921674,89.4,34.18
11:13:45,3.9793019999999997,89.4,34.18
11:13:46,4.001073,89.23,34.16
11:13:46,4.029247,89.23,34.16
11:13:46,4.085595,89.23,34.16
11:13:46,4.052299,89.23,34.16
11:13:47,4.0049150000000004,89.23,34.16
11:13:47,3.9434440000000004,89.23,34.16
11:13:47,3.9408830000000004,89.23,34.16
11:13:47,3.9460059999999997,89.23,34.16
11:13:48,3.9331989999999997,89.17,34.18
11:13:48,3.908867,89.17,34.18
11:13:48,3.878132,89.17,34.18
11:13:48,3.857642,89.17,34.18
11:13:49,3.849958,89.1,34.16
11:13:49,3.840993,89.1,34.16
11:13:49,3.8307480000000003,89.1,34.16
11:13:49,3.820503,89.1,34.16
11:13:50,3.811539,88.97,34.16
11:13:50,3.8038550000000004,88.97,34.16
11:13:50,3.7948910000000002,88.97,34.16
11:13:50,3.7884870000000004,88.97,34.16
11:13:51,3.782084,88.85,34.21
11:13:51,3.7756809999999996,88.85,34.21
11:13:51,3.7731199999999996,88.85,34.21
11:13:51,3.771839,88.85,34.21
11:13:52,3.7705580000000003,88.68,34.18
11:13:52,3.7679970000000003,88.68,34.18
11:13:52,3.7654360000000002,88.68,34.18
11:13:52,3.7577519999999995,88.68,34.18
11:13:53,3.756471,88.55,34.18
11:13:53,3.7372620000000003,88.55,34.18
11:13:53,3.727017,88.55,34.18
11:13:53,3.716772,88.55,34.18
11:13:54,3.714211,88.38,34.18
11:13:54,3.724456,88.38,34.18
11:13:54,3.7372620000000003,88.38,34.18
11:13:54,3.771839,88.38,34.18
11:13:55,3.797452,88.17,34.23
11:13:55,3.825626,88.17,34.23
11:13:55,3.8422739999999997,88.17,34.23
11:13:55,3.8538,88.17,34.23
11:13:56,3.8435550000000003,88.18,34.18
11:13:56,3.832029,88.18,34.18
11:13:56,3.816661,88.18,34.18
11:13:56,3.7961709999999997,88.18,34.18
11:13:57,3.771839,88.22,34.21
11:13:57,3.75391,88.22,34.21
11:13:57,3.744946,88.22,34.21
11:13:57,3.728297,88.22,34.21
11:13:58,3.7218940000000003,88.27,34.21
11:13:58,3.709088,88.27,34.21
11:13:58,3.701404,88.27,34.21
11:13:58,3.6885980000000003,88.27,34.21
11:13:59,3.6821940000000004,88.3,34.21
11:13:59,3.668108,88.3,34.21
11:13:59,3.6642660000000005,88.3,34.21
11:13:59,3.6719489999999997,88.3,34.21
11:14:00,3.701404,88.33,34.21
11:14:00,3.7347010000000003,88.33,34.21
11:14:00,3.776962,88.33,34.21
11:14:00,3.7948910000000002,88.33,34.21
11:14:01,3.8038550000000004,88.33,34.23
11:14:01,3.8371519999999997,88.33,34.23
11:14:01,3.880693,88.33,34.23
11:14:01,3.91399,88.33,34.23
11:14:02,3.947286,88.33,34.21
11:14:02,3.9767410000000005,88.33,34.21
11:14:02,3.9857050000000003,88.33,34.21
11:14:02,3.9857050000000003,88.33,34.21
11:14:03,3.9793019999999997,88.33,34.23
11:14:03,3.957531,88.33,34.23
11:14:03,3.944725,88.33,34.23
11:14:03,3.95497,88.33,34.23
11:14:04,3.9972309999999998,88.33,34.21
11:14:04,4.033089,88.33,34.21
11:14:04,4.0689470000000005,88.33,34.21
11:14:04,4.070228,88.33,34.21
11:14:05,4.062544,88.37,34.25
11:14:05,4.036931,88.37,34.25
11:14:05,3.9972309999999998,88.37,34.25
11:14:05,3.9562510000000004,88.37,34.25
11:14:06,3.91399,88.12,34.23
11:14:06,3.883255,88.12,34.23
11:14:06,3.852519,88.12,34.23
11:14:06,3.829468,88.12,34.23
11:14:07,3.8038550000000004,87.85,34.21
11:14:07,3.779523,87.85,34.21
11:14:07,3.764155,87.85,34.21
11:14:07,3.748788,87.85,34.21
11:14:08,3.729578,87.55,34.23
11:14:08,3.7193330000000002,87.55,34.23
11:14:08,3.709088,87.55,34.23
11:14:08,3.707807,87.55,34.23
11:14:09,3.6975620000000005,87.23,34.27
11:14:09,3.6873169999999997,87.23,34.27
11:14:09,3.6847559999999997,87.23,34.27
11:14:09,3.680914,87.23,34.27
11:14:10,3.680914,86.92,34.25
11:14:10,3.686036,86.92,34.25
11:14:10,3.6898779999999998,86.92,34.25
11:14:10,3.683475,86.92,34.25
11:14:11,3.677072,86.58,34.23
11:14:11,3.670669,86.58,34.23
11:14:11,3.657862,86.58,34.23
11:14:11,3.6488980000000004,86.58,34.23
11:14:12,3.645056,86.27,34.25
11:14:12,3.6412139999999997,86.27,34.25
11:14:12,3.6271269999999998,86.27,34.25
11:14:12,3.625846,86.27,34.25
11:14:13,3.619443,85.93,34.25
11:14:13,3.6181629999999996,85.93,34.25
11:14:13,3.622005,85.93,34.25
11:14:13,3.6309690000000003,85.93,34.25
11:14:14,3.639934,85.63,34.23
11:14:14,3.645056,85.63,34.23
11:14:14,3.634811,85.63,34.23
11:14:14,3.624566,85.63,34.23
11:14:15,3.616882,85.37,34.25
11:14:15,3.6130400000000003,85.37,34.25
11:14:15,3.607918,85.37,34.25
11:14:15,3.6027949999999995,85.37,34.25
11:14:16,3.59255,85.17,34.25
11:14:16,3.591269,85.17,34.25
11:14:16,3.589989,85.17,34.25
11:14:16,3.596392,85.17,34.25
11:14:17,3.6002339999999995,85.03,34.25
11:14:17,3.6117589999999997,85.03,34.25
11:14:17,3.6309690000000003,85.03,34.25
11:14:17,3.629689,85.03,34.25
11:14:18,3.639934,84.93,34.27
11:14:18,3.65274,84.93,34.27
11:14:18,3.665546,84.93,34.27
11:14:18,3.677072,84.93,34.27
11:14:19,3.686036,84.87,34.25
11:14:19,3.711649,84.87,34.25
11:14:19,3.7308589999999997,84.87,34.25
11:14:19,3.7423839999999995,84.87,34.25
11:14:20,3.764155,84.83,34.25
11:14:20,3.782084,84.83,34.25
11:14:20,3.7948910000000002,84.83,34.25
11:14:20,3.8012940000000004,84.83,34.25
11:14:21,3.7936099999999997,84.72,34.27
11:14:21,3.7961709999999997,84.72,34.27
11:14:21,3.800013,84.72,34.27
11:14:21,3.8217839999999996,84.72,34.27
11:14:22,3.8435550000000003,84.78,34.29
11:14:22,3.858922,84.78,34.29
11:14:22,3.887096,84.78,34.29
11:14:22,3.921674,84.78,34.29
11:14:23,3.9460059999999997,84.9,34.27
11:14:23,3.9562510000000004,84.9,34.27
11:14:23,3.9639349999999998,84.9,34.27
11:14:23,3.9434440000000004,84.9,34.27
11:14:24,3.924235,84.97,34.25
11:14:24,3.91399,84.97,34.25
11:14:24,3.869168,84.97,34.25
11:14:24,3.887096,84.97,34.25
11:14:25,3.924235,85.0,34.27
11:14:25,3.989547,85.0,34.27
11:14:25,4.029247,85.0,34.27
11:14:25,4.045896,85.0,34.27
11:14:26,4.074069000000001,85.05,34.27
11:14:26,4.111208,85.05,34.27
11:14:26,4.13554,85.05,34.27
11:14:26,4.150908,85.05,34.27
11:14:27,4.171398,85.13,34.27
11:14:27,4.185485,85.13,34.27
11:14:27,4.191888,85.13,34.27
11:14:27,4.152188,85.13,34.27
11:14:28,4.106085,85.22,34.31
11:14:28,4.0049150000000004,85.22,34.31
11:14:28,3.9498480000000002,85.22,34.31
11:14:28,4.002354,85.22,34.31
11:14:29,4.029247,85.32,34.29
11:14:29,4.070228,85.32,34.29
11:14:29,4.120173,85.32,34.29
11:14:29,4.168837,85.32,34.29
11:14:30,4.217501,85.4,34.29
11:14:30,4.254639,85.4,34.29
11:14:30,4.250797,85.4,34.29
11:14:30,4.252078,85.4,34.29
11:14:31,4.261043,85.48,34.27
11:14:31,4.2969,85.48,34.27
11:14:31,4.348126000000001,85.48,34.27
11:14:31,4.380142,85.48,34.27
11:14:32,4.414719,85.55,34.29
11:14:32,4.414719,85.55,34.29
11:14:32,4.409596,85.55,34.29
11:14:32,4.414719,85.55,34.29
11:14:33,4.410876999999999,85.55,34.29
11:14:33,4.403193,85.55,34.29
11:14:33,4.381423000000001,85.55,34.29
11:14:33,4.348126000000001,85.55,34.29
11:14:34,4.328916,85.55,34.31
11:14:34,4.331478,85.55,34.31
11:14:34,4.346845,85.55,34.31
11:14:34,4.378861,85.55,34.31
11:14:35,4.394229,85.48,34.31
11:14:35,4.399351,85.48,34.31
11:14:35,4.385264,85.48,34.31
11:14:35,4.364774,85.48,34.31
11:14:36,4.337880999999999,85.52,34.31
11:14:36,4.305865,85.52,34.31
11:14:36,4.272568,85.52,34.31
11:14:36,4.250797,85.52,34.31
11:14:37,4.239272,85.57,34.29
11:14:37,4.245675,85.57,34.29
11:14:37,4.25592,85.57,34.29
11:14:37,4.2648839999999995,85.57,34.29
11:14:38,4.268726,85.62,34.31
11:14:38,4.258481,85.62,34.31
11:14:38,4.241833,85.62,34.31
11:14:38,4.223904,85.62,34.31
11:14:39,4.205975,85.67,34.31
11:14:39,4.199572,85.67,34.31
11:14:39,4.217501,85.67,34.31
11:14:39,4.25592,85.67,34.31
11:14:40,4.257201,85.72,34.31
11:14:40,4.245675,85.72,34.31
11:14:40,4.2341489999999995,85.72,34.31
11:14:40,4.205975,85.72,34.31
11:14:41,4.17652,85.73,34.29
11:14:41,4.147066000000001,85.73,34.29
11:14:41,4.1445050000000005,85.73,34.29
11:14:41,4.181643,85.73,34.29
11:14:42,4.229026,85.9,34.31
11:14:42,4.305865,85.9,34.31
11:14:42,4.381423000000001,85.9,34.31
11:14:42,4.441612,85.9,34.31
11:14:43,4.471862000000001,86.07,34.31
11:14:43,4.478265,86.07,34.31
11:14:43,4.465459,86.07,34.31
11:14:43,4.448811,86.07,34.31
11:14:44,4.443688,86.17,34.31
11:14:44,4.437285,86.17,34.31
11:14:44,4.437285,86.17,34.31
11:14:44,4.428319999999999,86.17,34.31
11:14:45,4.411672,86.25,34.31
11:14:45,4.393743,86.25,34.31
11:14:45,4.361726999999999,86.25,34.31
11:14:45,4.334834,86.25,34.31
11:14:46,4.313063,86.45,34.31
11:14:46,4.301538,86.45,34.31
11:14:46,4.304099,86.45,34.31
11:14:46,4.313063,86.45,34.31
11:14:47,4.3220279999999995,86.6,34.31
11:14:47,4.311782,86.6,34.31
11:14:47,4.310502,86.6,34.31
11:14:47,4.332273000000001,86.6,34.31
11:14:48,4.374534,86.8,34.31
11:14:48,4.416795,86.8,34.31
11:14:48,4.451372,86.8,34.31
11:14:48,4.4616169999999995,86.8,34.31
11:14:49,4.456494,87.02,34.31
11:14:49,4.443688,87.02,34.31
11:14:49,4.437285,87.02,34.31
11:14:49,4.439846,87.02,34.31
11:14:50,4.439846,87.32,34.31
11:14:50,4.439846,87.32,34.31
11:14:50,4.4385650000000005,87.32,34.31
11:14:50,4.4385650000000005,87.32,34.31
11:14:51,4.434723,87.55,34.33
11:14:51,4.425758999999999,87.55,34.33
11:14:51,4.412953,87.55,34.33
11:14:51,4.400146,87.55,34.33
11:14:52,4.396305,87.8,34.31
11:14:52,4.392462999999999,87.8,34.31
11:14:52,4.388621,87.8,34.31
11:14:52,4.38734,87.8,34.31
11:14:53,4.3860589999999995,88.0,34.31
11:14:53,4.375814,88.0,34.31
11:14:53,4.365569,88.0,34.31
11:14:53,4.34636,88.0,34.31
11:14:54,4.332273000000001,88.22,34.33
11:14:54,4.3220279999999995,88.22,34.33
11:14:54,4.310502,88.22,34.33
11:14:54,4.300257,88.22,34.33
11:14:55,4.292573,88.48,34.33
11:14:55,4.284889,88.48,34.33
11:14:55,4.281047,88.48,34.33
11:14:55,4.275925,88.48,34.33
11:14:56,4.270802,88.5,34.33
11:14:56,4.268241000000001,88.5,34.33
11:14:56,4.261837,88.5,34.33
11:14:56,4.256715,88.5,34.33
11:14:57,4.254154,88.48,34.31
11:14:57,4.247751,88.48,34.31
11:14:57,4.242628,88.48,34.31
11:14:57,4.245189,88.48,34.31
11:14:58,4.242628,88.45,34.34
11:14:58,4.240067,88.45,34.34
11:14:58,4.236225,88.45,34.34
11:14:58,4.233664,88.45,34.34
11:14:59,4.231102,88.43,34.33
11:14:59,4.2323830000000005,88.43,34.33
11:14:59,4.227261,88.43,34.33
11:14:59,4.222138,88.43,34.33
11:15:00,4.218296,88.45,34.33
11:15:00,4.222138,88.45,34.33
11:15:00,4.233664,88.45,34.33
11:15:00,4.263118,88.45,34.33
11:15:01,4.291291999999999,88.5,34.33
11:15:01,4.316905,88.5,34.33
11:15:01,4.334834,88.5,34.33
11:15:01,4.348921,88.5,34.33
11:15:02,4.345079,88.55,34.34
11:15:02,4.34636,88.55,34.34
11:15:02,4.338676,88.55,34.34
11:15:02,4.334834,88.55,34.34
11:15:03,4.319466,88.58,34.33
11:15:03,4.301538,88.58,34.33
11:15:03,4.300257,88.58,34.33
11:15:03,4.2938529999999995,88.58,34.33
11:15:04,4.286169999999999,88.6,34.34
11:15:04,4.275925,88.6,34.34
11:15:04,4.273363,88.6,34.34
11:15:04,4.263118,88.6,34.34
11:15:05,4.255434999999999,88.63,34.34
11:15:05,4.255434999999999,88.63,34.34
11:15:05,4.261837,88.63,34.34
11:15:05,4.281047,88.63,34.34
11:15:06,4.30666,88.67,34.34
11:15:06,4.339956,88.67,34.34
11:15:06,4.3719730000000006,88.67,34.34
11:15:06,4.401427,88.67,34.34
11:15:07,4.424479,88.73,34.33
11:15:07,4.441127,88.73,34.33
11:15:07,4.442408,88.73,34.33
11:15:07,4.429601,88.73,34.33
11:15:08,4.406549,88.82,34.34
11:15:08,4.392462999999999,88.82,34.34
11:15:08,4.3719730000000006,88.82,34.34
11:15:08,4.354043,88.82,34.34
11:15:09,4.34636,88.9,34.34
11:15:09,4.328431,88.9,34.34
11:15:09,4.316905,88.9,34.34
11:15:09,4.30794,88.9,34.34
11:15:10,4.300257,88.97,34.34
11:15:10,4.300257,88.97,34.34
11:15:10,4.297696,88.97,34.34
11:15:10,4.2938529999999995,88.97,34.34
11:15:11,4.291291999999999,89.03,34.34
11:15:11,4.28745,89.03,34.34
11:15:11,4.273363,89.03,34.34
11:15:11,4.269521,89.03,34.34
11:15:12,4.264399,89.08,34.34
11:15:12,4.261837,89.08,34.34
11:15:12,4.255434999999999,89.08,34.34
11:15:12,4.252873,89.08,34.34
11:15:13,4.249031,89.15,34.39
11:15:13,4.247751,89.15,34.39
11:15:13,4.245189,89.15,34.39
11:15:13,4.252873,89.15,34.39
11:15:14,4.265679,89.22,34.34
11:15:14,4.284889,89.22,34.34
11:15:14,4.291291999999999,89.22,34.34
11:15:14,4.28745,89.22,34.34
11:15:15,4.283608,89.28,34.37
11:15:15,4.281047,89.28,34.37
11:15:15,4.275925,89.28,34.37
11:15:15,4.26696,89.28,34.37
11:15:16,4.260557,89.33,34.39
11:15:16,4.259276,89.33,34.39
11:15:16,4.261837,89.33,34.39
11:15:16,4.28745,89.33,34.39
11:15:17,4.342518,89.35,34.39
11:15:17,4.415514,89.35,34.39
11:15:17,4.479546,89.35,34.39
11:15:17,4.52821,89.35,34.39
11:15:18,4.551261,89.35,34.37
11:15:18,4.5422970000000005,89.35,34.37
11:15:18,4.521807,89.35,34.37
11:15:18,4.482107,89.35,34.37
11:15:19,4.451372,89.35,34.37
11:15:19,4.419356,89.35,34.37
11:15:19,4.389901,89.35,34.37
11:15:19,4.368130000000001,89.35,34.37
11:15:20,4.3502019999999995,89.33,34.39
11:15:20,4.333553,89.33,34.39
11:15:20,4.318186,89.33,34.39
11:15:20,4.30794,89.33,34.39
11:15:21,4.301538,89.32,34.39
11:15:21,4.2938529999999995,89.32,34.39
11:15:21,4.297696,89.32,34.39
11:15:21,4.301538,89.32,34.39
11:15:22,4.30666,89.33,34.39
11:15:22,4.318186,89.33,34.39
11:15:22,4.302818,89.33,34.39
11:15:22,4.290011,89.33,34.39
11:15:23,4.279767,89.27,34.43
11:15:23,4.259276,89.27,34.43
11:15:23,4.240067,89.27,34.43
11:15:23,4.241347,89.27,34.43
11:15:24,4.2439089999999995,89.23,34.39
11:15:24,4.278486,89.23,34.39
11:15:24,4.339956,89.23,34.39
11:15:24,4.444969,89.23,34.39
11:15:25,4.553823,89.23,34.41
11:15:25,4.661397,89.23,34.41
11:15:25,4.745918,89.23,34.41
11:15:25,4.806108,89.23,34.41
11:15:26,4.785618,89.23,34.43
11:15:26,4.726709,89.23,34.43
11:15:26,4.697254,89.23,34.43
11:15:26,4.610171,89.23,34.43
11:15:27,4.537175,89.23,34.43
11:15:27,4.5115620000000005,89.23,34.43
11:15:27,4.4616169999999995,89.23,34.43
11:15:27,4.429601,89.23,34.43
11:15:28,4.418075,89.2,34.41
11:15:28,4.4334430000000005,89.2,34.41
11:15:28,4.453933,89.2,34.41
11:15:28,4.474423000000001,89.2,34.41
11:15:29,4.483388,89.13,34.43
11:15:29,4.479546,89.13,34.43
11:15:29,4.455214,89.13,34.43
11:15:29,4.424479,89.13,34.43
11:15:30,4.391182,89.05,34.43
11:15:30,4.345079,89.05,34.43
11:15:30,4.314343,89.05,34.43
11:15:30,4.288730999999999,89.05,34.43
11:15:31,4.263118,88.95,34.43
11:15:31,4.2439089999999995,88.95,34.43
11:15:31,4.223418,88.95,34.43
11:15:31,4.20677,88.95,34.43
11:15:32,4.195244000000001,88.85,34.45
11:15:32,4.1849989999999995,88.85,34.45
11:15:32,4.176035,88.85,34.45
11:15:32,4.170912,88.85,34.45
11:15:33,4.161948000000001,88.8,34.47
11:15:33,4.155545,88.8,34.47
11:15:33,4.142738,88.8,34.47
11:15:33,4.129932,88.8,34.47
11:15:34,4.124809,88.78,34.43
11:15:34,4.1286510000000005,88.78,34.43
11:15:34,4.120967,88.78,34.43
11:15:34,4.113283999999999,88.78,34.43
11:15:35,4.109442,88.82,34.45
11:15:35,4.101758,88.82,34.45
11:15:35,4.092793,88.82,34.45
11:15:35,4.08639,88.82,34.45
11:15:36,4.083829,88.77,34.45
11:15:36,4.081268,88.77,34.45
11:15:36,4.0787059999999995,88.77,34.45
11:15:36,4.073583999999999,88.77,34.45
11:15:37,4.063339,88.7,34.47
11:15:37,4.059497,88.7,34.47
11:15:37,4.054374,88.7,34.47
11:15:37,4.050532,88.7,34.47
11:15:38,4.056936,88.63,34.47
11:15:38,4.051813,88.63,34.47
11:15:38,4.0428489999999995,88.63,34.47
11:15:38,4.041568,88.63,34.47
11:15:39,4.036446,88.53,34.47
11:15:39,4.039007,88.53,34.47
11:15:39,4.041568,88.53,34.47
11:15:39,4.035165,88.53,34.47
11:15:40,4.028762,88.45,34.45
11:15:40,4.035165,88.45,34.45
11:15:40,4.039007,88.45,34.45
11:15:40,4.0454099999999995,88.45,34.45
11:15:41,4.051813,88.4,34.47
11:15:41,4.063339,88.4,34.47
11:15:41,4.073583999999999,88.4,34.47
11:15:41,4.074864,88.4,34.47
11:15:42,4.073583999999999,88.22,34.47
11:15:42,4.0787059999999995,88.22,34.47
11:15:42,4.110723,88.22,34.47
11:15:42,4.136335,88.22,34.47
11:15:43,4.1542639999999995,88.07,34.47
11:15:43,4.1542639999999995,88.07,34.47
11:15:43,4.132493,88.07,34.47
11:15:43,4.109442,88.07,34.47
11:15:44,4.124809,87.92,34.47
11:15:44,4.156826000000001,87.92,34.47
11:15:44,4.183719,87.92,34.47
11:15:44,4.2375050000000005,87.92,34.47
11:15:45,4.278486,87.8,34.47
11:15:45,4.389901,87.8,34.47
11:15:45,4.420637,87.8,34.47
11:15:45,4.407830000000001,87.8,34.47
11:15:46,4.448811,87.65,34.47
11:15:46,4.48851,87.65,34.47
11:15:46,4.500036,87.65,34.47
11:15:46,4.502597,87.65,34.47
11:15:47,4.496194,87.57,34.47
11:15:47,4.469301000000001,87.57,34.47
11:15:47,4.434723,87.57,34.47
11:15:47,4.392462999999999,87.57,34.47
11:15:48,4.3502019999999995,87.5,34.47
11:15:48,4.315624,87.5,34.47
11:15:48,4.286169999999999,87.5,34.47
11:15:48,4.261837,87.5,34.47
11:15:49,4.229822,87.45,34.47
11:15:49,4.197806,87.45,34.47
11:15:49,4.188841,87.45,34.47
11:15:49,4.178596,87.45,34.47
11:15:50,4.160667,87.38,34.49
11:15:50,4.131213,87.38,34.49
11:15:50,4.120967,87.38,34.49
11:15:50,4.106881,87.38,34.49
11:15:51,4.077426,87.4,34.49
11:15:51,4.067181,87.4,34.49
11:15:51,4.077426,87.4,34.49
11:15:51,4.097916000000001,87.4,34.49
11:15:52,4.133774,87.45,34.49
11:15:52,4.169631,87.45,34.49
11:15:52,4.20549,87.45,34.49
11:15:52,4.218296,87.45,34.49
11:15:53,4.218296,87.52,34.49
11:15:53,4.182437999999999,87.52,34.49
11:15:53,4.138896,87.52,34.49
11:15:53,4.115844999999999,87.52,34.49
11:15:54,4.122248,87.62,34.49
11:15:54,4.122248,87.62,34.49
11:15:54,4.096635,87.62,34.49
11:15:54,4.0787059999999995,87.62,34.49
11:15:55,4.079987,87.72,34.47
11:15:55,4.082549,87.72,34.47
11:15:55,4.0659,87.72,34.47
11:15:55,4.051813,87.72,34.47
11:15:56,4.039007,87.83,34.47
11:15:56,4.037726,87.83,34.47
11:15:56,4.018517,87.83,34.47
11:15:56,4.0121139999999995,87.83,34.47
11:15:57,4.004429,87.97,34.47
11:15:57,3.9929040000000002,87.97,34.47
11:15:57,3.9852199999999995,87.97,34.47
11:15:57,3.974975,87.97,34.47
11:15:58,3.932714,88.08,34.47
11:15:58,3.8794129999999996,88.08,34.47
11:15:58,3.8742900000000002,88.08,34.47
11:15:58,3.8640449999999995,88.08,34.47
11:15:59,3.862764,88.2,34.49
11:15:59,3.8742900000000002,88.2,34.49
11:15:59,3.884535,88.2,34.49
11:15:59,3.8999029999999997,88.2,34.49
11:16:00,3.9075870000000004,88.3,34.47
11:16:00,3.9255160000000004,88.3,34.47
11:16:00,3.9331989999999997,88.3,34.47
11:16:00,3.924235,88.3,34.47
11:16:01,3.9152699999999996,88.45,34.49
11:16:01,3.908867,88.45,34.49
11:16:01,3.908867,88.45,34.49
11:16:01,3.916551,88.45,34.49
11:16:02,3.9280769999999996,88.58,34.47
11:16:02,3.952409,88.58,34.47
11:16:02,3.9511279999999998,88.58,34.47
11:16:02,3.944725,88.58,34.47
11:16:03,3.942164,88.7,34.49
11:16:03,3.93448,88.7,34.49
11:16:03,3.9255160000000004,88.7,34.49
11:16:03,3.911428,88.7,34.49
11:16:04,3.903745,88.82,34.49
11:16:04,3.9152699999999996,88.82,34.49
11:16:04,3.9460059999999997,88.82,34.49
11:16:04,3.9857050000000003,88.82,34.49
11:16:05,4.021564,88.9,34.49
11:16:05,4.038212000000001,88.9,34.49
11:16:05,4.033089,88.9,34.49
11:16:05,4.025405,88.9,34.49
11:16:06,4.002354,88.97,34.49
11:16:06,3.966496,88.97,34.49
11:16:06,3.9460059999999997,88.97,34.49
11:16:06,3.9280769999999996,88.97,34.49
11:16:07,3.906306,89.03,34.47
11:16:07,3.901183,89.03,34.47
11:16:07,3.902464,89.03,34.47
11:16:07,3.924235,89.03,34.47
11:16:08,3.9588120000000004,89.2,34.49
11:16:08,3.9921089999999997,89.2,34.49
11:16:08,4.003634,89.2,34.49
11:16:08,4.0049150000000004,89.2,34.49
11:16:09,3.9985120000000003,89.32,34.47
11:16:09,3.989547,89.32,34.47
11:16:09,3.980583,89.32,34.47
11:16:09,3.97546,89.32,34.47
11:16:10,3.971618,89.43,34.49
11:16:10,3.9639349999999998,89.43,34.49
11:16:10,3.9562510000000004,89.43,34.49
11:16:10,3.9485669999999997,89.43,34.49
11:16:11,3.939603,89.57,34.49
11:16:11,3.9306379999999996,89.57,34.49
11:16:11,3.926796,89.57,34.49
11:16:11,3.898622,89.57,34.49
11:16:12,3.862764,89.7,34.49
11:16:12,3.857642,89.7,34.49
11:16:12,3.865326,89.7,34.49
11:16:12,3.887096,89.7,34.49
11:16:13,3.898622,89.82,34.47
11:16:13,3.9127089999999995,89.82,34.47
11:16:13,3.9152699999999996,89.82,34.47
11:16:13,3.9178319999999998,89.82,34.47
11:16:14,3.9075870000000004,90.02,34.49
11:16:14,3.8999029999999997,90.02,34.49
11:16:14,3.884535,90.02,34.49
11:16:14,3.875571,90.02,34.49
11:16:15,3.8742900000000002,90.22,34.49
11:16:15,3.870448,90.22,34.49
11:16:15,3.865326,90.22,34.49
11:16:15,3.8538,90.22,34.49
11:16:16,3.847397,90.35,34.49
11:16:16,3.844836,90.35,34.49
11:16:16,3.844836,90.35,34.49
11:16:16,3.840993,90.35,34.49
11:16:17,3.83459,90.48,34.47
11:16:17,3.8397129999999997,90.48,34.47
11:16:17,3.8307480000000003,90.48,34.47
11:16:17,3.829468,90.48,34.47
11:16:18,3.823065,90.72,34.49
11:16:18,3.8192230000000005,90.72,34.49
11:16:18,3.815381,90.72,34.49
11:16:18,3.815381,90.72,34.49
11:16:19,3.8192230000000005,90.93,34.49
11:16:19,3.8192230000000005,90.93,34.49
11:16:19,3.8064160000000005,90.93,34.49
11:16:19,3.8012940000000004,90.93,34.49
11:16:20,3.800013,91.22,34.49
11:16:20,3.820503,91.22,34.49
11:16:20,3.866606,91.22,34.49
11:16:20,3.9152699999999996,91.22,34.49
11:16:21,3.95497,91.45,34.49
11:16:21,3.988267,91.45,34.49
11:16:21,4.008757,91.45,34.49
11:16:21,3.9959510000000003,91.45,34.49
11:16:22,3.9946699999999997,91.65,34.49
11:16:22,4.008757,91.65,34.49
11:16:22,3.999793,91.65,34.49
11:16:22,3.957531,91.65,34.49
11:16:23,3.8768510000000003,91.87,34.49
11:16:23,3.8614839999999995,91.87,34.49
11:16:23,3.887096,91.87,34.49
11:16:23,3.890938,91.87,34.49
11:16:24,3.901183,92.08,34.49
11:16:24,3.91399,92.08,34.49
11:16:24,3.9370410000000002,92.08,34.49
11:16:24,3.9562510000000004,92.08,34.49
11:16:25,3.9793019999999997,92.32,34.49
11:16:25,3.9985120000000003,92.32,34.49
11:16:25,4.008757,92.32,34.49
11:16:25,4.003634,92.32,34.49
11:16:26,3.9959510000000003,92.57,34.49
11:16:26,3.984425,92.57,34.49
11:16:26,3.962654,92.57,34.49
11:16:26,3.939603,92.57,34.49
11:16:27,3.9203930000000002,92.85,34.5
11:16:27,3.903745,92.85,34.5
11:16:27,3.8819739999999996,92.85,34.5
11:16:27,3.869168,92.85,34.5
11:16:28,3.849958,93.02,34.49
11:16:28,3.8371519999999997,93.02,34.49
11:16:28,3.823065,93.02,34.49
11:16:28,3.815381,93.02,34.49
11:16:29,3.8038550000000004,93.02,34.47
11:16:29,3.7987330000000004,93.02,34.47
11:16:29,3.7833650000000003,93.02,34.47
11:16:29,3.7756809999999996,93.02,34.47
11:16:30,3.7679970000000003,93.0,34.49
11:16:30,3.762875,93.0,34.49
11:16:30,3.7603129999999996,93.0,34.49
11:16:30,3.7551910000000004,93.0,34.49
11:16:31,3.743665,92.88,34.49
11:16:31,3.7359809999999998,92.88,34.49
11:16:31,3.728297,92.88,34.49
11:16:31,3.7218940000000003,92.88,34.49
11:16:32,3.7180519999999997,92.77,34.5
11:16:32,3.7180519999999997,92.77,34.5
11:16:32,3.710369,92.77,34.5
11:16:32,3.703965,92.77,34.5
11:16:33,3.7001230000000005,92.68,34.49
11:16:33,3.701404,92.68,34.49
11:16:33,3.6975620000000005,92.68,34.49
11:16:33,3.69372,92.68,34.49
11:16:34,3.6975620000000005,92.58,34.49
11:16:34,3.6950010000000004,92.58,34.49
11:16:34,3.6898779999999998,92.58,34.49
11:16:34,3.680914,92.58,34.49
11:16:35,3.6757910000000003,92.53,34.49
11:16:35,3.674511,92.53,34.49
11:16:35,3.6796330000000004,92.53,34.49
11:16:35,3.680914,92.53,34.49
11:16:36,3.6719489999999997,92.48,34.49
11:16:36,3.674511,92.48,34.49
11:16:36,3.670669,92.48,34.49
11:16:36,3.668108,92.48,34.49
11:16:37,3.659143,92.4,34.49
11:16:37,3.6565819999999998,92.4,34.49
11:16:37,3.6514589999999996,92.4,34.49
11:16:37,3.645056,92.4,34.49
11:16:38,3.643775,92.33,34.49
11:16:38,3.6412139999999997,92.33,34.49
11:16:38,3.6488980000000004,92.33,34.49
11:16:38,3.6617040000000003,92.33,34.49
11:16:39,3.6719489999999997,92.33,34.47
11:16:39,3.678353,92.33,34.47
11:16:39,3.680914,92.33,34.47
11:16:39,3.680914,92.33,34.47
11:16:40,3.6719489999999997,92.32,34.5
11:16:40,3.660424,92.32,34.5
11:16:40,3.65274,92.32,34.5
11:16:40,3.645056,92.32,34.5
11:16:41,3.637372,92.32,34.49
11:16:41,3.6309690000000003,92.32,34.49
11:16:41,3.634811,92.32,34.49
11:16:41,3.642495,92.32,34.49
11:16:42,3.634811,92.32,34.49
11:16:42,3.609198,92.32,34.49
11:16:42,3.6002339999999995,92.32,34.49
11:16:42,3.591269,92.32,34.49
11:16:43,3.5823050000000003,92.28,34.5
11:16:43,3.5759019999999997,92.28,34.5
11:16:43,3.5759019999999997,92.28,34.5
11:16:43,3.569499,92.28,34.5
11:16:44,3.5669370000000002,92.27,34.49
11:16:44,3.5669370000000002,92.27,34.49
11:16:44,3.568218,92.27,34.49
11:16:44,3.5759019999999997,92.27,34.49
11:16:45,3.574621,92.23,34.49
11:16:45,3.5669370000000002,92.23,34.49
11:16:45,3.559253,92.23,34.49
11:16:45,3.555411,92.23,34.49
11:16:46,3.546447,92.23,34.47
11:16:46,3.536202,92.23,34.47
11:16:46,3.5272370000000004,92.23,34.47
11:16:46,3.520834,92.23,34.47
11:16:47,3.515712,92.2,34.49
11:16:47,3.5246760000000004,92.2,34.49
11:16:47,3.523396,92.2,34.49
11:16:47,3.5246760000000004,92.2,34.49
11:16:48,3.518273,92.15,34.49
11:16:48,3.505467,92.15,34.49
11:16:48,3.497783,92.15,34.49
11:16:48,3.4913790000000002,92.15,34.49
11:16:49,3.487538,92.07,34.49
11:16:49,3.483696,92.07,34.49
11:16:49,3.479854,92.07,34.49
11:16:49,3.4721699999999998,92.07,34.49
11:16:50,3.470889,91.88,34.49
11:16:50,3.474731,91.88,34.49
11:16:50,3.487538,91.88,34.49
11:16:50,3.497783,91.88,34.49
11:16:51,3.505467,91.65,34.49
11:16:51,3.5118699999999996,91.65,34.49
11:16:51,3.51315,91.65,34.49
11:16:51,3.523396,91.65,34.49
11:16:52,3.515712,91.42,34.47
11:16:52,3.5169919999999997,91.42,34.47
11:16:52,3.5118699999999996,91.42,34.47
11:16:52,3.5093089999999996,91.42,34.47
11:16:53,3.497783,91.23,34.49
11:16:53,3.49266,91.23,34.49
11:16:53,3.49266,91.23,34.49
11:16:53,3.486257,91.23,34.49
11:16:54,3.4734510000000003,91.07,34.47
11:16:54,3.459364,91.07,34.47
11:16:54,3.45168,91.07,34.47
11:16:54,3.4452769999999995,91.07,34.47
11:16:55,3.442715,90.88,34.47
11:16:55,3.4363120000000005,90.88,34.47
11:16:55,3.434683,90.88,34.47
11:16:55,3.42956,90.88,34.47
11:16:56,3.42956,90.68,34.47
11:16:56,3.432121,90.68,34.47
11:16:56,3.426999,90.68,34.47
11:16:56,3.4154730000000004,90.68,34.47
11:16:57,3.411631,90.48,34.49
11:16:57,3.4103510000000004,90.48,34.49
11:16:57,3.406509,90.48,34.49
11:16:57,3.403947,90.48,34.49
11:16:58,3.4103510000000004,90.3,34.45
11:16:58,3.40907,90.3,34.45
11:16:58,3.4103510000000004,90.3,34.45
11:16:58,3.4077889999999997,90.3,34.45
11:16:59,3.4052279999999997,90.13,34.49
11:16:59,3.3975440000000003,90.13,34.49
11:16:59,3.3924220000000003,90.13,34.49
11:16:59,3.38858,90.13,34.49
11:17:00,3.3898599999999997,89.97,34.47
11:17:00,3.3872989999999996,89.97,34.47
11:17:00,3.3847379999999996,89.97,34.47
11:17:00,3.383457,89.97,34.47
11:17:01,3.375773,89.73,34.49
11:17:01,3.3770540000000002,89.73,34.49
11:17:01,3.374493,89.73,34.49
11:17:01,3.378335,89.73,34.49
11:17:02,3.3668089999999995,89.53,34.47
11:17:02,3.357844,89.53,34.47
11:17:02,3.350161,89.53,34.47
11:17:02,3.3424769999999997,89.53,34.47
11:17:03,3.336074,89.35,34.49
11:17:03,3.3296699999999997,89.35,34.49
11:17:03,3.3296699999999997,89.35,34.49
11:17:03,3.3219870000000005,89.35,34.49
11:17:04,3.318145,89.12,34.47
11:17:04,3.318145,89.12,34.47
11:17:04,3.320706,89.12,34.47
11:17:04,3.316864,89.12,34.47
11:17:05,3.307899,88.88,34.49
11:17:05,3.305338,88.88,34.49
11:17:05,3.3002160000000003,88.88,34.49
11:17:05,3.2938129999999997,88.88,34.49
11:17:06,3.2886900000000003,88.67,34.47
11:17:06,3.2861290000000003,88.67,34.47
11:17:06,3.2810059999999996,88.67,34.47
11:17:06,3.272042,88.67,34.47
11:17:07,3.2682,88.5,34.49
11:17:07,3.263077,88.5,34.49
11:17:07,3.255394,88.5,34.49
11:17:07,3.2541130000000003,88.5,34.49
11:17:08,3.252832,88.25,34.47
11:17:08,3.24899,88.25,34.47
11:17:08,3.237464,88.25,34.47
11:17:08,3.240026,88.25,34.47
11:17:09,3.238745,88.08,34.47
11:17:09,3.238745,88.08,34.47
11:17:09,3.234903,88.08,34.47
11:17:09,3.241307,88.08,34.47
11:17:10,3.246429,87.92,34.47
11:17:10,3.242587,87.92,34.47
11:17:10,3.231061,87.92,34.47
11:17:10,3.223377,87.92,34.47
11:17:11,3.20801,87.75,34.47
11:17:11,3.200326,87.75,34.47
11:17:11,3.202887,87.75,34.47
11:17:11,3.222097,87.75,34.47
11:17:12,3.213132,87.6,34.45
11:17:12,3.191362,87.6,34.45
11:17:12,3.1926419999999998,87.6,34.45
11:17:12,3.1888,87.6,34.45
11:17:13,3.183678,87.45,34.47
11:17:13,3.183678,87.45,34.47
11:17:13,3.174713,87.45,34.47
11:17:13,3.164468,87.45,34.47
11:17:14,3.158065,87.18,34.45
11:17:14,3.154223,87.18,34.45
11:17:14,3.142697,87.18,34.45
11:17:14,3.1286099999999997,87.18,34.45
11:17:15,3.124768,86.88,34.45
11:17:15,3.114523,86.88,34.45
11:17:15,3.120927,86.88,34.45
11:17:15,3.114523,86.88,34.45
11:17:16,3.114523,86.55,34.47
11:17:16,3.097875,86.55,34.47
11:17:16,3.090191,86.55,34.47
11:17:16,3.078665,86.55,34.47
11:17:17,3.073543,86.32,34.45
11:17:17,3.06714,86.32,34.45
11:17:17,3.062017,86.32,34.45
11:17:17,3.060737,86.32,34.45
11:17:18,3.064579,85.97,34.47
11:17:18,3.056895,85.97,34.47
11:17:18,3.054333,85.97,34.47
11:17:18,3.04665,85.97,34.47
11:17:19,3.041527,85.67,34.45
11:17:19,3.038966,85.67,34.45
11:17:19,3.033843,85.67,34.45
11:17:19,3.033843,85.67,34.45
11:17:20,3.02616,85.28,34.45
11:17:20,3.019756,85.28,34.45
11:17:20,3.013353,85.28,34.45
11:17:20,3.0082299999999997,85.28,34.45
11:17:21,3.010792,84.93,34.47
11:17:21,3.013353,84.93,34.47
11:17:21,3.0056689999999997,84.93,34.47
11:17:21,2.999266,84.93,34.47
11:17:22,2.994143,84.6,34.47
11:17:22,2.994143,84.6,34.47
11:17:22,2.9864599999999997,84.6,34.47
11:17:22,2.981337,84.6,34.47
11:17:23,2.974934,84.3,34.47
11:17:23,2.968531,84.3,34.47
11:17:23,2.969811,84.3,34.47
11:17:23,2.958286,84.3,34.47
11:17:24,2.953163,84.02,34.49
11:17:24,2.945479,84.02,34.49
11:17:24,2.942918,84.02,34.49
11:17:24,2.950602,84.02,34.49
11:17:25,2.9608470000000002,83.77,34.45
11:17:25,2.983898,83.77,34.45
11:17:25,3.010792,83.77,34.45
11:17:25,3.031282,83.77,34.45
11:17:26,3.060737,83.47,34.45
11:17:26,3.0863490000000002,83.47,34.45
11:17:26,3.076104,83.47,34.45
11:17:26,3.049211,83.47,34.45
11:17:27,3.032563,83.13,34.47
11:17:27,3.019756,83.13,34.47
11:17:27,3.0095110000000003,83.13,34.47
11:17:27,3.0043889999999998,83.13,34.47
11:17:28,3.0056689999999997,82.88,34.45
11:17:28,3.003108,82.88,34.45
11:17:28,2.9928630000000003,82.88,34.45
11:17:28,2.997985,82.88,34.45
11:17:29,3.001827,82.73,34.45
11:17:29,3.0095110000000003,82.73,34.45
11:17:29,3.0056689999999997,82.73,34.45
11:17:29,2.9903020000000002,82.73,34.45
11:17:30,2.973653,82.57,34.47
11:17:30,2.96725,82.57,34.47
11:17:30,2.957005,82.57,34.47
11:17:30,2.955724,82.57,34.47
11:17:31,2.959566,82.47,34.45
11:17:31,2.9441990000000002,82.47,34.45
11:17:31,2.940357,82.47,34.45
11:17:31,2.9441990000000002,82.47,34.45
11:17:32,2.951882,82.37,34.45
11:17:32,2.972373,82.37,34.45
11:17:32,2.973653,82.37,34.45
11:17:32,2.9634080000000003,82.37,34.45
11:17:33,2.953163,82.23,34.45
11:17:33,2.949321,82.23,34.45
11:17:33,2.945479,82.23,34.45
11:17:33,2.94804,82.23,34.45
11:17:34,2.942918,82.08,34.45
11:17:34,2.940357,82.08,34.45
11:17:34,2.933954,82.08,34.45
11:17:34,2.937325,82.08,34.45
11:17:35,2.937325,81.87,34.45
11:17:35,2.942448,81.87,34.45
11:17:35,2.9437279999999997,81.87,34.45
11:17:35,2.948851,81.87,34.45
11:17:36,2.951412,81.6,34.43
11:17:36,2.952693,81.6,34.43
11:17:36,2.951412,81.6,34.43
11:17:36,2.9475700000000002,81.6,34.43
11:17:37,2.936044,81.37,34.45
11:17:37,2.9309220000000002,81.37,34.45
11:17:37,2.923238,81.37,34.45
11:17:37,2.9142740000000003,81.37,34.45
11:17:38,2.904029,81.15,34.47
11:17:38,2.898906,81.15,34.47
11:17:38,2.892503,81.15,34.47
11:17:38,2.88738,81.15,34.47
11:17:39,2.884819,80.88,34.47
11:17:39,2.880977,80.88,34.47
11:17:39,2.873293,80.88,34.47
11:17:39,2.868171,80.88,34.47
11:17:40,2.8694509999999998,80.65,34.45
11:17:40,2.86689,80.65,34.45
11:17:40,2.86689,80.65,34.45
11:17:40,2.851522,80.65,34.45
11:17:41,2.841277,80.45,34.45
11:17:41,2.8374349999999997,80.45,34.45
11:17:41,2.832313,80.45,34.45
11:17:41,2.831032,80.45,34.45
11:17:42,2.8271900000000003,80.3,34.45
11:17:42,2.82591,80.3,34.45
11:17:42,2.8220680000000002,80.3,34.45
11:17:42,2.816945,80.3,34.45
11:17:43,2.811823,80.23,34.45
11:17:43,2.814384,80.23,34.45
11:17:43,2.816945,80.23,34.45
11:17:43,2.813103,80.23,34.45
11:17:44,2.813103,80.23,34.43
11:17:44,2.8067,80.23,34.43
11:17:44,2.804139,80.23,34.43
11:17:44,2.802858,80.23,34.43
11:17:45,2.8015779999999997,80.28,34.43
11:17:45,2.8015779999999997,80.28,34.43
11:17:45,2.8067,80.28,34.43
11:17:45,2.799016,80.28,34.43
11:17:46,2.7926130000000002,80.32,34.43
11:17:46,2.791332,80.32,34.43
11:17:46,2.78621,80.32,34.43
11:17:46,2.783649,80.32,34.43
11:17:47,2.767,80.35,34.43
11:17:47,2.764439,80.35,34.43
11:17:47,2.752913,80.35,34.43
11:17:47,2.743949,80.35,34.43
11:17:48,2.737546,80.42,34.43
11:17:48,2.733704,80.42,34.43
11:17:48,2.72602,80.42,34.43
11:17:48,2.719617,80.42,34.43
11:17:49,2.70553,80.43,34.45
11:17:49,2.699127,80.43,34.45
11:17:49,2.702969,80.43,34.45
11:17:49,2.70681,80.43,34.45
11:17:50,2.717056,80.5,34.45
11:17:50,2.715775,80.5,34.45
11:17:50,2.7042490000000003,80.5,34.45
11:17:50,2.6978459999999997,80.5,34.45
11:17:51,2.6978459999999997,80.57,34.43
11:17:51,2.7042490000000003,80.57,34.43
11:17:51,2.688882,80.57,34.43
11:17:51,2.6786369999999997,80.57,34.43
11:17:52,2.661988,80.62,34.43
11:17:52,2.66455,80.62,34.43
11:17:52,2.660707,80.62,34.43
11:17:52,2.6671110000000002,80.62,34.43
11:17:53,2.6696720000000003,80.77,34.43
11:17:53,2.6632689999999997,80.77,34.43
11:17:53,2.66455,80.77,34.43
11:17:53,2.661988,80.77,34.43
11:17:54,2.659427,80.9,34.43
11:17:54,2.656866,80.9,34.43
11:17:54,2.640217,80.9,34.43
11:17:54,2.6376560000000002,80.9,34.43
11:17:55,2.632534,81.03,34.43
11:17:55,2.636375,81.03,34.43
11:17:55,2.633814,81.03,34.43
11:17:55,2.6376560000000002,81.03,34.43
11:17:56,2.641498,81.17,34.43
11:17:56,2.642779,81.17,34.43
11:17:56,2.644059,81.17,34.43
11:17:56,2.647901,81.17,34.43
11:17:57,2.64534,81.3,34.43
11:17:57,2.644059,81.3,34.43
11:17:57,2.638937,81.3,34.43
11:17:57,2.636375,81.3,34.43
11:17:58,2.62613,81.45,34.41
11:17:58,2.6210080000000002,81.45,34.41
11:17:58,2.613324,81.45,34.41
11:17:58,2.606921,81.45,34.41
11:17:59,2.606921,81.58,34.43
11:17:59,2.600518,81.58,34.43
11:17:59,2.596676,81.58,34.43
11:17:59,2.592834,81.58,34.43
11:18:00,2.587711,81.73,34.43
11:18:00,2.58515,81.73,34.43
11:18:00,2.58515,81.73,34.43
11:18:00,2.5749049999999998,81.73,34.43
11:18:01,2.5723439999999997,81.92,34.43
11:18:01,2.5659400000000003,81.92,34.43
11:18:01,2.5633790000000003,81.92,34.43
11:18:01,2.5595369999999997,81.92,34.43
11:18:02,2.555695,82.1,34.43
11:18:02,2.553134,82.1,34.43
11:18:02,2.549292,82.1,34.43
11:18:02,2.548012,82.1,34.43
11:18:03,2.54545,82.28,34.43
11:18:03,2.549292,82.28,34.43
11:18:03,2.553134,82.28,34.43
11:18:03,2.5467310000000003,82.28,34.43
11:18:04,2.5403279999999997,82.52,34.43
11:18:04,2.537766,82.52,34.43
11:18:04,2.530082,82.52,34.43
11:18:04,2.526241,82.52,34.43
11:18:05,2.5249599999999996,82.78,34.43
11:18:05,2.518557,82.78,34.43
11:18:05,2.5147150000000003,82.78,34.43
11:18:05,2.509592,82.78,34.43
11:18:06,2.510873,83.03,34.41
11:18:06,2.508312,83.03,34.41
11:18:06,2.50575,83.03,34.41
11:18:06,2.499347,83.03,34.41
11:18:07,2.489102,83.22,34.41
11:18:07,2.482699,83.22,34.41
11:18:07,2.475015,83.22,34.41
11:18:07,2.477576,83.22,34.41
11:18:08,2.477576,83.38,34.43
11:18:08,2.476296,83.38,34.43
11:18:08,2.473735,83.38,34.43
11:18:08,2.478857,83.38,34.43
11:18:09,2.475015,83.52,34.43
11:18:09,2.476296,83.52,34.43
11:18:09,2.471173,83.52,34.43
11:18:09,2.468612,83.52,34.43
11:18:10,2.4660509999999998,83.65,34.41
11:18:10,2.458367,83.65,34.41
11:18:10,2.457086,83.65,34.41
11:18:10,2.454525,83.65,34.41
11:18:11,2.454525,83.77,34.41
11:18:11,2.449402,83.77,34.41
11:18:11,2.446841,83.77,34.41
11:18:11,2.441719,83.77,34.41
11:18:12,2.44543,83.87,34.43
11:18:12,2.446711,83.87,34.43
11:18:12,2.446711,83.87,34.43
11:18:12,2.4415880000000003,83.87,34.43
11:18:13,2.436466,83.98,34.43
11:18:13,2.430063,83.98,34.43
11:18:13,2.427501,83.98,34.43
11:18:13,2.4210979999999998,83.98,34.43
11:18:14,2.4223790000000003,84.12,34.43
11:18:14,2.415975,84.12,34.43
11:18:14,2.413414,84.12,34.43
