PHASE,EDA_MAX,EDA_MIN,EDA_MEAN,EDA_MEDIAN,EDA_MODE,EDA_SD,EDA_DIFF,HR_MAX,HR_MIN,HR_MEAN,HR_MEDIAN,HR_MODE,HR_SD,HR_DIFF,SKT_MAX,SKT_MIN,SKT_MEAN,SKT_MEDIAN,SKT_MODE,SKT_SD,SKT_DIFF,BVP_MAX,BVP_MIN,BVP_MEAN,BVP_MEDIAN,BVP_MODE,BVP_SD,BVP_DIFF
1 -> 2,5.049811000000002,5.049810999999997,5.049811000000001,5.049811000000002,5.049811000000002,1.9357399876532506e-15,1.4802973661668755e-15,78.0,78.0,78.0,78.0,78.0,0.0,0.0,35.23000000000001,35.22999999999999,35.230000000000004,35.230000000000004,35.23000000000001,9.39959687352353e-15,2.3684757858670005e-15,-3.35,-9.66,-6.4975,-6.49,-9.66,2.3534801358838786,-2.103333333333333
1 -> 2,5.049811000000002,5.049810999999997,5.049811000000001,5.049811000000002,5.049811000000002,1.9357399876532506e-15,1.4802973661668755e-15,78.0,78.0,78.0,78.0,78.0,0.0,0.0,35.23000000000001,35.22999999999999,35.230000000000004,35.230000000000004,35.23000000000001,9.39959687352353e-15,2.3684757858670005e-15,-3.35,-9.66,-6.4975,-6.49,-9.66,2.3534801358838786,-2.103333333333333
1 -> 2,5.049811000000002,5.049810999999997,5.049811000000001,5.049811000000002,5.049811000000002,1.9357399876532506e-15,1.4802973661668755e-15,78.0,78.0,78.0,78.0,78.0,0.0,0.0,35.23000000000001,35.22999999999999,35.230000000000004,35.230000000000004,35.23000000000001,9.39959687352353e-15,2.3684757858670005e-15,-11.75,-18.71,-15.1425,-15.055,-18.71,2.5941990575127423,-2.3200000000000003
1 -> 2,5.049811000000002,5.049810999999997,5.049811000000001,5.049811000000002,5.049811000000002,1.9357399876532506e-15,1.4802973661668755e-15,78.0,78.0,78.0,78.0,78.0,0.0,0.0,35.23000000000001,35.22999999999999,35.230000000000004,35.230000000000004,35.23000000000001,9.39959687352353e-15,2.3684757858670005e-15,-11.75,-18.71,-15.1425,-15.055,-18.71,2.5941990575127423,-2.3200000000000003
1 -> 2,5.049811000000002,5.049810999999997,5.049811000000001,5.049811000000002,5.049811000000002,1.9357399876532506e-15,1.4802973661668755e-15,78.0,78.0,78.0,78.0,78.0,0.0,0.0,35.23000000000001,35.22999999999999,35.230000000000004,35.230000000000004,35.23000000000001,9.39959687352353e-15,2.3684757858670005e-15,-21.26,-25.02,-23.675,-24.21,-25.02,1.5183790699295083,-1.2533333333333327
1 -> 2,5.049811000000002,5.049810999999997,5.049811000000001,5.049811000000002,5.049811000000002,1.9357399876532506e-15,1.4802973661668755e-15,78.0,78.0,78.0,78.0,78.0,0.0,0.0,35.23000000000001,35.22999999999999,35.230000000000004,35.230000000000004,35.23000000000001,9.39959687352353e-15,2.3684757858670005e-15,-21.26,-25.02,-23.675,-24.21,-25.02,1.5183790699295083,-1.2533333333333327
1 -> 2,5.049811000000002,5.049810999999997,5.049811000000001,5.049811000000002,5.049811000000002,1.9357399876532506e-15,1.4802973661668755e-15,78.0,78.0,78.0,78.0,78.0,0.0,0.0,35.23000000000001,35.22999999999999,35.230000000000004,35.230000000000004,35.23000000000001,9.39959687352353e-15,2.3684757858670005e-15,-11.14,-23.51,-17.78,-18.235,-23.51,4.655937070021458,4.123333333333334
1 -> 2,5.049811000000002,5.049810999999997,5.049811000000001,5.049811000000002,5.049811000000002,1.9357399876532506e-15,1.4802973661668755e-15,78.0,78.0,78.0,78.0,78.0,0.0,0.0,35.23000000000001,35.22999999999999,35.230000000000004,35.230000000000004,35.23000000000001,9.39959687352353e-15,2.3684757858670005e-15,-11.14,-23.51,-17.78,-18.235,-23.51,4.655937070021458,4.123333333333334
1 -> 2,5.048531000000001,5.048530999999998,5.0485310000000005,5.0485310000000005,5.048531000000001,1.538370149106851e-15,5.921189464667501e-16,78.0,78.0,78.0,78.0,78.0,0.0,0.0,35.23000000000001,35.22999999999999,35.230000000000004,35.230000000000004,35.23000000000001,9.39959687352353e-15,2.3684757858670005e-15,2.79,-6.3,-1.1875000000000002,-0.6200000000000001,-6.3,3.440402411056009,3.03
1 -> 2,5.048531000000001,5.048530999999998,5.0485310000000005,5.0485310000000005,5.048531000000001,1.538370149106851e-15,5.921189464667501e-16,78.0,78.0,78.0,78.0,78.0,0.0,0.0,35.23000000000001,35.22999999999999,35.230000000000004,35.230000000000004,35.23000000000001,9.39959687352353e-15,2.3684757858670005e-15,2.79,-6.3,-1.1875000000000002,-0.6200000000000001,-6.3,3.440402411056009,3.03
1 -> 2,5.048531000000001,5.048530999999998,5.0485310000000005,5.0485310000000005,5.048531000000001,1.538370149106851e-15,5.921189464667501e-16,78.0,78.0,78.0,78.0,78.0,0.0,0.0,35.23000000000001,35.22999999999999,35.230000000000004,35.230000000000004,35.23000000000001,9.39959687352353e-15,2.3684757858670005e-15,3.53,0.96,2.545,2.8449999999999998,0.96,1.0117929630117024,-0.8566666666666666
1 -> 2,5.048531000000001,5.048530999999998,5.0485310000000005,5.0485310000000005,5.048531000000001,1.538370149106851e-15,5.921189464667501e-16,78.0,78.0,78.0,78.0,78.0,0.0,0.0,35.23000000000001,35.22999999999999,35.230000000000004,35.230000000000004,35.23000000000001,9.39959687352353e-15,2.3684757858670005e-15,3.53,0.96,2.545,2.8449999999999998,0.96,1.0117929630117024,-0.8566666666666666
1 -> 2,5.048531000000001,5.048530999999998,5.0485310000000005,5.0485310000000005,5.048531000000001,1.538370149106851e-15,5.921189464667501e-16,78.0,78.0,78.0,78.0,78.0,0.0,0.0,35.23000000000001,35.22999999999999,35.230000000000004,35.230000000000004,35.23000000000001,9.39959687352353e-15,2.3684757858670005e-15,-0.69,-4.54,-2.7975000000000003,-2.98,-4.54,1.4527796632662504,-1.2833333333333334
1 -> 2,5.048531000000001,5.048530999999998,5.0485310000000005,5.0485310000000005,5.048531000000001,1.538370149106851e-15,5.921189464667501e-16,78.0,78.0,78.0,78.0,78.0,0.0,0.0,35.23000000000001,35.22999999999999,35.230000000000004,35.230000000000004,35.23000000000001,9.39959687352353e-15,2.3684757858670005e-15,-0.69,-4.54,-2.7975000000000003,-2.98,-4.54,1.4527796632662504,-1.2833333333333334
1 -> 2,5.048531000000001,5.048530999999998,5.0485310000000005,5.0485310000000005,5.048531000000001,1.538370149106851e-15,5.921189464667501e-16,78.0,78.0,78.0,78.0,78.0,0.0,0.0,35.23000000000001,35.22999999999999,35.230000000000004,35.230000000000004,35.23000000000001,9.39959687352353e-15,2.3684757858670005e-15,-3.33,-4.91,-4.315,-4.51,-4.91,0.6217113478134367,0.5266666666666667
1 -> 2,5.048531000000001,5.048530999999998,5.0485310000000005,5.0485310000000005,5.048531000000001,1.538370149106851e-15,5.921189464667501e-16,78.0,78.0,78.0,78.0,78.0,0.0,0.0,35.23000000000001,35.22999999999999,35.230000000000004,35.230000000000004,35.23000000000001,9.39959687352353e-15,2.3684757858670005e-15,-3.33,-4.91,-4.315,-4.51,-4.91,0.6217113478134367,0.5266666666666667
1 -> 2,5.045970000000001,5.045969999999998,5.0459700000000005,5.0459700000000005,5.045970000000001,1.538370149106851e-15,5.921189464667501e-16,78.0,78.0,78.0,78.0,78.0,0.0,0.0,35.23000000000001,35.22999999999999,35.230000000000004,35.230000000000004,35.23000000000001,9.39959687352353e-15,2.3684757858670005e-15,4.17,-2.06,0.8699999999999999,0.685,-2.06,2.33288448063765,2.0766666666666667
1 -> 2,5.045970000000001,5.045969999999998,5.0459700000000005,5.0459700000000005,5.045970000000001,1.538370149106851e-15,5.921189464667501e-16,78.0,78.0,78.0,78.0,78.0,0.0,0.0,35.23000000000001,35.22999999999999,35.230000000000004,35.230000000000004,35.23000000000001,9.39959687352353e-15,2.3684757858670005e-15,4.17,-2.06,0.8699999999999999,0.685,-2.06,2.33288448063765,2.0766666666666667
1 -> 2,5.045970000000001,5.045969999999998,5.0459700000000005,5.0459700000000005,5.045970000000001,1.538370149106851e-15,5.921189464667501e-16,78.0,78.0,78.0,78.0,78.0,0.0,0.0,35.23000000000001,35.22999999999999,35.230000000000004,35.230000000000004,35.23000000000001,9.39959687352353e-15,2.3684757858670005e-15,11.83,6.66,9.522499999999999,9.8,6.66,1.950722622517102,1.7233333333333334
1 -> 2,5.045970000000001,5.045969999999998,5.0459700000000005,5.0459700000000005,5.045970000000001,1.538370149106851e-15,5.921189464667501e-16,78.0,78.0,78.0,78.0,78.0,0.0,0.0,35.23000000000001,35.22999999999999,35.230000000000004,35.230000000000004,35.23000000000001,9.39959687352353e-15,2.3684757858670005e-15,11.83,6.66,9.522499999999999,9.8,6.66,1.950722622517102,1.7233333333333334
1 -> 2,5.045970000000001,5.045969999999998,5.0459700000000005,5.0459700000000005,5.045970000000001,1.538370149106851e-15,5.921189464667501e-16,78.0,78.0,78.0,78.0,78.0,0.0,0.0,35.23000000000001,35.22999999999999,35.230000000000004,35.230000000000004,35.23000000000001,9.39959687352353e-15,2.3684757858670005e-15,12.54,11.8,12.27,12.370000000000001,11.8,0.2815137652051845,-0.20333333333333314
1 -> 2,5.045970000000001,5.045969999999998,5.0459700000000005,5.0459700000000005,5.045970000000001,1.538370149106851e-15,5.921189464667501e-16,78.0,78.0,78.0,78.0,78.0,0.0,0.0,35.23000000000001,35.22999999999999,35.230000000000004,35.230000000000004,35.23000000000001,9.39959687352353e-15,2.3684757858670005e-15,12.54,11.8,12.27,12.370000000000001,11.8,0.2815137652051845,-0.20333333333333314
1 -> 2,5.045970000000001,5.045969999999998,5.0459700000000005,5.0459700000000005,5.045970000000001,1.538370149106851e-15,5.921189464667501e-16,78.0,78.0,78.0,78.0,78.0,0.0,0.0,35.23000000000001,35.22999999999999,35.230000000000004,35.230000000000004,35.23000000000001,9.39959687352353e-15,2.3684757858670005e-15,10.9,5.19,8.3125,8.58,5.19,2.1443690797061965,-1.9033333333333333
1 -> 2,5.045970000000001,5.045969999999998,5.0459700000000005,5.0459700000000005,5.045970000000001,1.538370149106851e-15,5.921189464667501e-16,78.0,78.0,78.0,78.0,78.0,0.0,0.0,35.23000000000001,35.22999999999999,35.230000000000004,35.230000000000004,35.23000000000001,9.39959687352353e-15,2.3684757858670005e-15,10.9,5.19,8.3125,8.58,5.19,2.1443690797061965,-1.9033333333333333
1 -> 2,5.047251000000002,5.047251,5.047251000000001,5.047251000000001,5.047251,8.881784197001252e-16,0.0,78.0,78.0,78.0,78.0,78.0,0.0,0.0,35.23000000000001,35.22999999999999,35.230000000000004,35.230000000000004,35.23000000000001,9.39959687352353e-15,2.3684757858670005e-15,2.28,-7.16,-2.5175,-2.595,-7.16,3.532961753260287,-3.1466666666666665
1 -> 2,5.047251000000002,5.047251,5.047251000000001,5.047251000000001,5.047251,8.881784197001252e-16,0.0,78.0,78.0,78.0,78.0,78.0,0.0,0.0,35.23000000000001,35.22999999999999,35.230000000000004,35.230000000000004,35.23000000000001,9.39959687352353e-15,2.3684757858670005e-15,2.28,-7.16,-2.5175,-2.595,-7.16,3.532961753260287,-3.1466666666666665
1 -> 2,5.047251000000002,5.047251,5.047251000000001,5.047251000000001,5.047251,8.881784197001252e-16,0.0,78.0,78.0,78.0,78.0,78.0,0.0,0.0,35.23000000000001,35.22999999999999,35.230000000000004,35.230000000000004,35.23000000000001,9.39959687352353e-15,2.3684757858670005e-15,-7.55,-10.22,-9.18,-9.475000000000001,-10.22,0.9967196195520587,0.5833333333333336
1 -> 2,5.047251000000002,5.047251,5.047251000000001,5.047251000000001,5.047251,8.881784197001252e-16,0.0,78.0,78.0,78.0,78.0,78.0,0.0,0.0,35.23000000000001,35.22999999999999,35.230000000000004,35.230000000000004,35.23000000000001,9.39959687352353e-15,2.3684757858670005e-15,-7.55,-10.22,-9.18,-9.475000000000001,-10.22,0.9967196195520587,0.5833333333333336
1 -> 2,5.047251000000002,5.047251,5.047251000000001,5.047251000000001,5.047251,8.881784197001252e-16,0.0,78.0,78.0,78.0,78.0,78.0,0.0,0.0,35.23000000000001,35.22999999999999,35.230000000000004,35.230000000000004,35.23000000000001,9.39959687352353e-15,2.3684757858670005e-15,8.86,-4.17,2.3175,2.29,-4.17,4.876183830620006,4.343333333333333
1 -> 2,5.047251000000002,5.047251,5.047251000000001,5.047251000000001,5.047251,8.881784197001252e-16,0.0,78.0,78.0,78.0,78.0,78.0,0.0,0.0,35.23000000000001,35.22999999999999,35.230000000000004,35.230000000000004,35.23000000000001,9.39959687352353e-15,2.3684757858670005e-15,8.86,-4.17,2.3175,2.29,-4.17,4.876183830620006,4.343333333333333
1 -> 2,5.047251000000002,5.047251,5.047251000000001,5.047251000000001,5.047251,8.881784197001252e-16,0.0,78.0,78.0,78.0,78.0,78.0,0.0,0.0,35.23000000000001,35.22999999999999,35.230000000000004,35.230000000000004,35.23000000000001,9.39959687352353e-15,2.3684757858670005e-15,18.68,12.62,16.1175,16.585,12.62,2.3074051984859536,2.02
1 -> 2,5.047251000000002,5.047251,5.047251000000001,5.047251000000001,5.047251,8.881784197001252e-16,0.0,78.0,78.0,78.0,78.0,78.0,0.0,0.0,35.23000000000001,35.22999999999999,35.230000000000004,35.230000000000004,35.23000000000001,9.39959687352353e-15,2.3684757858670005e-15,18.68,12.62,16.1175,16.585,12.62,2.3074051984859536,2.02
1 -> 2,5.049811000000002,5.049810999999997,5.049811000000001,5.049811000000002,5.049811000000002,1.9357399876532506e-15,1.4802973661668755e-15,78.0,78.0,78.0,78.0,78.0,0.0,0.0,35.210000000000015,35.20999999999999,35.21000000000001,35.21000000000001,35.210000000000015,1.2306961192854808e-14,4.736951571734001e-15,18.88,16.06,17.6575,17.845,16.06,1.0778769642217987,-0.9400000000000001
1 -> 2,5.049811000000002,5.049810999999997,5.049811000000001,5.049811000000002,5.049811000000002,1.9357399876532506e-15,1.4802973661668755e-15,78.0,78.0,78.0,78.0,78.0,0.0,0.0,35.210000000000015,35.20999999999999,35.21000000000001,35.21000000000001,35.210000000000015,1.2306961192854808e-14,4.736951571734001e-15,18.88,16.06,17.6575,17.845,16.06,1.0778769642217987,-0.9400000000000001
1 -> 2,5.049811000000002,5.049810999999997,5.049811000000001,5.049811000000002,5.049811000000002,1.9357399876532506e-15,1.4802973661668755e-15,78.0,78.0,78.0,78.0,78.0,0.0,0.0,35.210000000000015,35.20999999999999,35.21000000000001,35.21000000000001,35.210000000000015,1.2306961192854808e-14,4.736951571734001e-15,14.8,12.36,13.4525,13.325,12.36,0.9178609644167252,-0.8133333333333338
1 -> 2,5.049811000000002,5.049810999999997,5.049811000000001,5.049811000000002,5.049811000000002,1.9357399876532506e-15,1.4802973661668755e-15,78.0,78.0,78.0,78.0,78.0,0.0,0.0,35.210000000000015,35.20999999999999,35.21000000000001,35.21000000000001,35.210000000000015,1.2306961192854808e-14,4.736951571734001e-15,14.8,12.36,13.4525,13.325,12.36,0.9178609644167252,-0.8133333333333338
1 -> 2,5.049811000000002,5.049810999999997,5.049811000000001,5.049811000000002,5.049811000000002,1.9357399876532506e-15,1.4802973661668755e-15,78.0,78.0,78.0,78.0,78.0,0.0,0.0,35.210000000000015,35.20999999999999,35.21000000000001,35.21000000000001,35.210000000000015,1.2306961192854808e-14,4.736951571734001e-15,11.95,10.61,11.315,11.350000000000001,10.61,0.4998749843710925,-0.4466666666666666
1 -> 2,5.049811000000002,5.049810999999997,5.049811000000001,5.049811000000002,5.049811000000002,1.9357399876532506e-15,1.4802973661668755e-15,78.0,78.0,78.0,78.0,78.0,0.0,0.0,35.210000000000015,35.20999999999999,35.21000000000001,35.21000000000001,35.210000000000015,1.2306961192854808e-14,4.736951571734001e-15,11.95,10.61,11.315,11.350000000000001,10.61,0.4998749843710925,-0.4466666666666666
1 -> 2,5.049811000000002,5.049810999999997,5.049811000000001,5.049811000000002,5.049811000000002,1.9357399876532506e-15,1.4802973661668755e-15,78.0,78.0,78.0,78.0,78.0,0.0,0.0,35.210000000000015,35.20999999999999,35.21000000000001,35.21000000000001,35.210000000000015,1.2306961192854808e-14,4.736951571734001e-15,10.03,8.08,9.08,9.105,8.08,0.724948274016843,-0.6499999999999998
1 -> 2,5.049811000000002,5.049810999999997,5.049811000000001,5.049811000000002,5.049811000000002,1.9357399876532506e-15,1.4802973661668755e-15,78.0,78.0,78.0,78.0,78.0,0.0,0.0,35.210000000000015,35.20999999999999,35.21000000000001,35.21000000000001,35.210000000000015,1.2306961192854808e-14,4.736951571734001e-15,10.03,8.08,9.08,9.105,8.08,0.724948274016843,-0.6499999999999998
1 -> 2,5.057494000000002,5.057493999999998,5.057494,5.057494,5.057494000000002,1.6011864169946884e-15,2.9605947323337506e-16,78.0,78.0,78.0,78.0,78.0,0.0,0.0,35.210000000000015,35.20999999999999,35.21000000000001,35.21000000000001,35.210000000000015,1.2306961192854808e-14,4.736951571734001e-15,7.17,2.6,5.050000000000001,5.215,2.6,1.7118557182192662,-1.5233333333333334
1 -> 2,5.057494000000002,5.057493999999998,5.057494,5.057494,5.057494000000002,1.6011864169946884e-15,2.9605947323337506e-16,78.0,78.0,78.0,78.0,78.0,0.0,0.0,35.210000000000015,35.20999999999999,35.21000000000001,35.21000000000001,35.210000000000015,1.2306961192854808e-14,4.736951571734001e-15,7.17,2.6,5.050000000000001,5.215,2.6,1.7118557182192662,-1.5233333333333334
1 -> 2,5.057494000000002,5.057493999999998,5.057494,5.057494,5.057494000000002,1.6011864169946884e-15,2.9605947323337506e-16,78.0,78.0,78.0,78.0,78.0,0.0,0.0,35.210000000000015,35.20999999999999,35.21000000000001,35.21000000000001,35.210000000000015,1.2306961192854808e-14,4.736951571734001e-15,0.56,-5.5,-2.5025,-2.535,-5.5,2.259782898864402,-2.02
1 -> 2,5.057494000000002,5.057493999999998,5.057494,5.057494,5.057494000000002,1.6011864169946884e-15,2.9605947323337506e-16,78.0,78.0,78.0,78.0,78.0,0.0,0.0,35.210000000000015,35.20999999999999,35.21000000000001,35.21000000000001,35.210000000000015,1.2306961192854808e-14,4.736951571734001e-15,0.56,-5.5,-2.5025,-2.535,-5.5,2.259782898864402,-2.02
1 -> 2,5.057494000000002,5.057493999999998,5.057494,5.057494,5.057494000000002,1.6011864169946884e-15,2.9605947323337506e-16,78.0,78.0,78.0,78.0,78.0,0.0,0.0,35.210000000000015,35.20999999999999,35.21000000000001,35.21000000000001,35.210000000000015,1.2306961192854808e-14,4.736951571734001e-15,-7.42,-13.78,-10.5275,-10.455,-13.78,2.370225463959072,-2.1199999999999997
1 -> 2,5.057494000000002,5.057493999999998,5.057494,5.057494,5.057494000000002,1.6011864169946884e-15,2.9605947323337506e-16,78.0,78.0,78.0,78.0,78.0,0.0,0.0,35.210000000000015,35.20999999999999,35.21000000000001,35.21000000000001,35.210000000000015,1.2306961192854808e-14,4.736951571734001e-15,-7.42,-13.78,-10.5275,-10.455,-13.78,2.370225463959072,-2.1199999999999997
1 -> 2,5.057494000000002,5.057493999999998,5.057494,5.057494,5.057494000000002,1.6011864169946884e-15,2.9605947323337506e-16,78.0,78.0,78.0,78.0,78.0,0.0,0.0,35.210000000000015,35.20999999999999,35.21000000000001,35.21000000000001,35.210000000000015,1.2306961192854808e-14,4.736951571734001e-15,-16.19,-22.71,-19.62,-19.79,-22.71,2.4479583329787293,-2.1733333333333333
1 -> 2,5.057494000000002,5.057493999999998,5.057494,5.057494,5.057494000000002,1.6011864169946884e-15,2.9605947323337506e-16,78.0,78.0,78.0,78.0,78.0,0.0,0.0,35.210000000000015,35.20999999999999,35.21000000000001,35.21000000000001,35.210000000000015,1.2306961192854808e-14,4.736951571734001e-15,-16.19,-22.71,-19.62,-19.79,-22.71,2.4479583329787293,-2.1733333333333333
1 -> 2,5.071577000000001,5.071576999999997,5.071577,5.071577,5.071577000000001,1.88411095042053e-15,5.921189464667501e-16,78.0,78.0,78.0,78.0,78.0,0.0,0.0,35.210000000000015,35.20999999999999,35.21000000000001,35.21000000000001,35.210000000000015,1.2306961192854808e-14,4.736951571734001e-15,-17.06,-23.55,-21.1125,-21.92,-23.55,2.551689391364083,2.163333333333334
1 -> 2,5.071577000000001,5.071576999999997,5.071577,5.071577,5.071577000000001,1.88411095042053e-15,5.921189464667501e-16,78.0,78.0,78.0,78.0,78.0,0.0,0.0,35.210000000000015,35.20999999999999,35.21000000000001,35.21000000000001,35.210000000000015,1.2306961192854808e-14,4.736951571734001e-15,-17.06,-23.55,-21.1125,-21.92,-23.55,2.551689391364083,2.163333333333334
1 -> 2,5.071577000000001,5.071576999999997,5.071577,5.071577,5.071577000000001,1.88411095042053e-15,5.921189464667501e-16,78.0,78.0,78.0,78.0,78.0,0.0,0.0,35.210000000000015,35.20999999999999,35.21000000000001,35.21000000000001,35.210000000000015,1.2306961192854808e-14,4.736951571734001e-15,3.81,-12.09,-3.9675,-3.795,-12.09,5.947362335523202,5.300000000000001
1 -> 2,5.071577000000001,5.071576999999997,5.071577,5.071577,5.071577000000001,1.88411095042053e-15,5.921189464667501e-16,78.0,78.0,78.0,78.0,78.0,0.0,0.0,35.210000000000015,35.20999999999999,35.21000000000001,35.21000000000001,35.210000000000015,1.2306961192854808e-14,4.736951571734001e-15,3.81,-12.09,-3.9675,-3.795,-12.09,5.947362335523202,5.300000000000001
1 -> 2,5.071577000000001,5.071576999999997,5.071577,5.071577,5.071577000000001,1.88411095042053e-15,5.921189464667501e-16,78.0,78.0,78.0,78.0,78.0,0.0,0.0,35.210000000000015,35.20999999999999,35.21000000000001,35.21000000000001,35.210000000000015,1.2306961192854808e-14,4.736951571734001e-15,13.8,7.78,11.2625,11.735,7.78,2.290920939273113,2.006666666666667
1 -> 2,5.071577000000001,5.071576999999997,5.071577,5.071577,5.071577000000001,1.88411095042053e-15,5.921189464667501e-16,78.0,78.0,78.0,78.0,78.0,0.0,0.0,35.210000000000015,35.20999999999999,35.21000000000001,35.21000000000001,35.210000000000015,1.2306961192854808e-14,4.736951571734001e-15,13.8,7.78,11.2625,11.735,7.78,2.290920939273113,2.006666666666667
1 -> 2,5.071577000000001,5.071576999999997,5.071577,5.071577,5.071577000000001,1.88411095042053e-15,5.921189464667501e-16,78.0,78.0,78.0,78.0,78.0,0.0,0.0,35.210000000000015,35.20999999999999,35.21000000000001,35.21000000000001,35.210000000000015,1.2306961192854808e-14,4.736951571734001e-15,14.05,11.89,13.0975,13.225000000000001,11.89,0.8255112052540535,-0.7200000000000001
1 -> 2,5.071577000000001,5.071576999999997,5.071577,5.071577,5.071577000000001,1.88411095042053e-15,5.921189464667501e-16,78.0,78.0,78.0,78.0,78.0,0.0,0.0,35.210000000000015,35.20999999999999,35.21000000000001,35.21000000000001,35.210000000000015,1.2306961192854808e-14,4.736951571734001e-15,14.05,11.89,13.0975,13.225000000000001,11.89,0.8255112052540535,-0.7200000000000001
1 -> 2,5.077979000000002,5.077978999999999,5.077979000000001,5.077979000000001,5.077978999999999,1.4043333874306805e-15,0.0,78.0,78.0,78.0,78.0,78.0,0.0,0.0,35.210000000000015,35.20999999999999,35.21000000000001,35.21000000000001,35.210000000000015,1.2306961192854808e-14,4.736951571734001e-15,11.11,10.46,10.674999999999999,10.565,10.46,0.2577304793771971,-0.19999999999999987
1 -> 2,5.077979000000002,5.077978999999999,5.077979000000001,5.077979000000001,5.077978999999999,1.4043333874306805e-15,0.0,78.0,78.0,78.0,78.0,78.0,0.0,0.0,35.210000000000015,35.20999999999999,35.21000000000001,35.21000000000001,35.210000000000015,1.2306961192854808e-14,4.736951571734001e-15,11.11,10.46,10.674999999999999,10.565,10.46,0.2577304793771971,-0.19999999999999987
1 -> 2,5.077979000000002,5.077978999999999,5.077979000000001,5.077979000000001,5.077978999999999,1.4043333874306805e-15,0.0,78.0,78.0,78.0,78.0,78.0,0.0,0.0,35.210000000000015,35.20999999999999,35.21000000000001,35.21000000000001,35.210000000000015,1.2306961192854808e-14,4.736951571734001e-15,10.66,10.08,10.4625,10.555,10.08,0.22960564017462623,-0.17999999999999972
1 -> 2,5.077979000000002,5.077978999999999,5.077979000000001,5.077979000000001,5.077978999999999,1.4043333874306805e-15,0.0,78.0,78.0,78.0,78.0,78.0,0.0,0.0,35.210000000000015,35.20999999999999,35.21000000000001,35.21000000000001,35.210000000000015,1.2306961192854808e-14,4.736951571734001e-15,10.66,10.08,10.4625,10.555,10.08,0.22960564017462623,-0.17999999999999972
1 -> 2,5.077979000000002,5.077978999999999,5.077979000000001,5.077979000000001,5.077978999999999,1.4043333874306805e-15,0.0,78.0,78.0,78.0,78.0,78.0,0.0,0.0,35.210000000000015,35.20999999999999,35.21000000000001,35.21000000000001,35.210000000000015,1.2306961192854808e-14,4.736951571734001e-15,9.44,6.97,8.215,8.225,6.97,0.9235935253129485,-0.8233333333333333
1 -> 2,5.077979000000002,5.077978999999999,5.077979000000001,5.077979000000001,5.077978999999999,1.4043333874306805e-15,0.0,78.0,78.0,78.0,78.0,78.0,0.0,0.0,35.210000000000015,35.20999999999999,35.21000000000001,35.21000000000001,35.210000000000015,1.2306961192854808e-14,4.736951571734001e-15,9.44,6.97,8.215,8.225,6.97,0.9235935253129485,-0.8233333333333333
1 -> 2,5.077979000000002,5.077978999999999,5.077979000000001,5.077979000000001,5.077978999999999,1.4043333874306805e-15,0.0,78.0,78.0,78.0,78.0,78.0,0.0,0.0,35.210000000000015,35.20999999999999,35.21000000000001,35.21000000000001,35.210000000000015,1.2306961192854808e-14,4.736951571734001e-15,6.18,2.97,4.7025,4.83,2.97,1.1976304730591985,-1.0699999999999998
1 -> 2,5.077979000000002,5.077978999999999,5.077979000000001,5.077979000000001,5.077978999999999,1.4043333874306805e-15,0.0,78.0,78.0,78.0,78.0,78.0,0.0,0.0,35.210000000000015,35.20999999999999,35.21000000000001,35.21000000000001,35.210000000000015,1.2306961192854808e-14,4.736951571734001e-15,6.18,2.97,4.7025,4.83,2.97,1.1976304730591985,-1.0699999999999998
1 -> 2,5.072857000000002,5.072856999999999,5.072857000000001,5.072857000000001,5.072857000000002,1.1749496091904413e-15,-2.9605947323337506e-16,78.33,78.33,78.33,78.33,78.33,0.0,0.0,35.210000000000015,35.20999999999999,35.21000000000001,35.21000000000001,35.210000000000015,1.2306961192854808e-14,4.736951571734001e-15,1.25,-5.43,-2.0225,-1.9549999999999998,-5.43,2.495289311883494,-2.2266666666666666
1 -> 2,5.072857000000002,5.072856999999999,5.072857000000001,5.072857000000001,5.072857000000002,1.1749496091904413e-15,-2.9605947323337506e-16,78.33,78.33,78.33,78.33,78.33,0.0,0.0,35.210000000000015,35.20999999999999,35.21000000000001,35.21000000000001,35.210000000000015,1.2306961192854808e-14,4.736951571734001e-15,1.25,-5.43,-2.0225,-1.9549999999999998,-5.43,2.495289311883494,-2.2266666666666666
1 -> 2,5.072857000000002,5.072856999999999,5.072857000000001,5.072857000000001,5.072857000000002,1.1749496091904413e-15,-2.9605947323337506e-16,78.33,78.33,78.33,78.33,78.33,0.0,0.0,35.210000000000015,35.20999999999999,35.21000000000001,35.21000000000001,35.210000000000015,1.2306961192854808e-14,4.736951571734001e-15,-7.76,-15.17,-11.3975,-11.33,-15.17,2.7612531122662407,-2.47
1 -> 2,5.072857000000002,5.072856999999999,5.072857000000001,5.072857000000001,5.072857000000002,1.1749496091904413e-15,-2.9605947323337506e-16,78.33,78.33,78.33,78.33,78.33,0.0,0.0,35.210000000000015,35.20999999999999,35.21000000000001,35.21000000000001,35.210000000000015,1.2306961192854808e-14,4.736951571734001e-15,-7.76,-15.17,-11.3975,-11.33,-15.17,2.7612531122662407,-2.47
1 -> 2,5.072857000000002,5.072856999999999,5.072857000000001,5.072857000000001,5.072857000000002,1.1749496091904413e-15,-2.9605947323337506e-16,78.33,78.33,78.33,78.33,78.33,0.0,0.0,35.210000000000015,35.20999999999999,35.21000000000001,35.21000000000001,35.210000000000015,1.2306961192854808e-14,4.736951571734001e-15,-17.89,-23.76,-21.1725,-21.52,-23.76,2.231393902922566,-1.956666666666667
1 -> 2,5.072857000000002,5.072856999999999,5.072857000000001,5.072857000000001,5.072857000000002,1.1749496091904413e-15,-2.9605947323337506e-16,78.33,78.33,78.33,78.33,78.33,0.0,0.0,35.210000000000015,35.20999999999999,35.21000000000001,35.21000000000001,35.210000000000015,1.2306961192854808e-14,4.736951571734001e-15,-17.89,-23.76,-21.1725,-21.52,-23.76,2.231393902922566,-1.956666666666667
1 -> 2,5.072857000000002,5.072856999999999,5.072857000000001,5.072857000000001,5.072857000000002,1.1749496091904413e-15,-2.9605947323337506e-16,78.33,78.33,78.33,78.33,78.33,0.0,0.0,35.210000000000015,35.20999999999999,35.21000000000001,35.21000000000001,35.210000000000015,1.2306961192854808e-14,4.736951571734001e-15,-14.45,-23.66,-19.765,-20.475,-23.66,3.5138902942465355,3.0700000000000003
1 -> 2,5.072857000000002,5.072856999999999,5.072857000000001,5.072857000000001,5.072857000000002,1.1749496091904413e-15,-2.9605947323337506e-16,78.33,78.33,78.33,78.33,78.33,0.0,0.0,35.210000000000015,35.20999999999999,35.21000000000001,35.21000000000001,35.210000000000015,1.2306961192854808e-14,4.736951571734001e-15,-14.45,-23.66,-19.765,-20.475,-23.66,3.5138902942465355,3.0700000000000003
1 -> 2,5.071577000000001,5.071576999999997,5.071577,5.071577,5.071577000000001,1.88411095042053e-15,5.921189464667501e-16,78.33,78.33,78.33,78.33,78.33,0.0,0.0,35.210000000000015,35.20999999999999,35.21000000000001,35.21000000000001,35.210000000000015,1.2306961192854808e-14,4.736951571734001e-15,6.1,-9.16,-1.2525,-0.9750000000000001,-9.16,5.7123347897335295,5.086666666666667
1 -> 2,5.071577000000001,5.071576999999997,5.071577,5.071577,5.071577000000001,1.88411095042053e-15,5.921189464667501e-16,78.33,78.33,78.33,78.33,78.33,0.0,0.0,35.210000000000015,35.20999999999999,35.21000000000001,35.21000000000001,35.210000000000015,1.2306961192854808e-14,4.736951571734001e-15,6.1,-9.16,-1.2525,-0.9750000000000001,-9.16,5.7123347897335295,5.086666666666667
1 -> 2,5.071577000000001,5.071576999999997,5.071577,5.071577,5.071577000000001,1.88411095042053e-15,5.921189464667501e-16,78.33,78.33,78.33,78.33,78.33,0.0,0.0,35.210000000000015,35.20999999999999,35.21000000000001,35.21000000000001,35.210000000000015,1.2306961192854808e-14,4.736951571734001e-15,13.25,9.47,11.8325,12.305,9.47,1.4786205564647068,1.2599999999999998
1 -> 2,5.071577000000001,5.071576999999997,5.071577,5.071577,5.071577000000001,1.88411095042053e-15,5.921189464667501e-16,78.33,78.33,78.33,78.33,78.33,0.0,0.0,35.210000000000015,35.20999999999999,35.21000000000001,35.21000000000001,35.210000000000015,1.2306961192854808e-14,4.736951571734001e-15,13.25,9.47,11.8325,12.305,9.47,1.4786205564647068,1.2599999999999998
1 -> 2,5.071577000000001,5.071576999999997,5.071577,5.071577,5.071577000000001,1.88411095042053e-15,5.921189464667501e-16,78.33,78.33,78.33,78.33,78.33,0.0,0.0,35.210000000000015,35.20999999999999,35.21000000000001,35.21000000000001,35.210000000000015,1.2306961192854808e-14,4.736951571734001e-15,13.01,10.75,11.93,11.98,10.75,0.85146931829632,-0.7533333333333333
1 -> 2,5.071577000000001,5.071576999999997,5.071577,5.071577,5.071577000000001,1.88411095042053e-15,5.921189464667501e-16,78.33,78.33,78.33,78.33,78.33,0.0,0.0,35.210000000000015,35.20999999999999,35.21000000000001,35.21000000000001,35.210000000000015,1.2306961192854808e-14,4.736951571734001e-15,13.01,10.75,11.93,11.98,10.75,0.85146931829632,-0.7533333333333333
1 -> 2,5.071577000000001,5.071576999999997,5.071577,5.071577,5.071577000000001,1.88411095042053e-15,5.921189464667501e-16,78.33,78.33,78.33,78.33,78.33,0.0,0.0,35.210000000000015,35.20999999999999,35.21000000000001,35.21000000000001,35.210000000000015,1.2306961192854808e-14,4.736951571734001e-15,10.02,8.66,9.2875,9.235,8.66,0.5070194769434403,-0.45333333333333314
1 -> 2,5.071577000000001,5.071576999999997,5.071577,5.071577,5.071577000000001,1.88411095042053e-15,5.921189464667501e-16,78.33,78.33,78.33,78.33,78.33,0.0,0.0,35.210000000000015,35.20999999999999,35.21000000000001,35.21000000000001,35.210000000000015,1.2306961192854808e-14,4.736951571734001e-15,10.02,8.66,9.2875,9.235,8.66,0.5070194769434403,-0.45333333333333314
1 -> 2,5.085661000000002,5.085660999999998,5.085661,5.085661,5.085661000000002,1.6011864169946884e-15,-2.9605947323337506e-16,78.33,78.33,78.33,78.33,78.33,0.0,0.0,35.210000000000015,35.20999999999999,35.21000000000001,35.21000000000001,35.210000000000015,1.2306961192854808e-14,4.736951571734001e-15,8.29,7.03,7.66,7.66,7.03,0.4718580294961606,-0.41999999999999965
1 -> 2,5.085661000000002,5.085660999999998,5.085661,5.085661,5.085661000000002,1.6011864169946884e-15,-2.9605947323337506e-16,78.33,78.33,78.33,78.33,78.33,0.0,0.0,35.210000000000015,35.20999999999999,35.21000000000001,35.21000000000001,35.210000000000015,1.2306961192854808e-14,4.736951571734001e-15,8.29,7.03,7.66,7.66,7.03,0.4718580294961606,-0.41999999999999965
1 -> 2,5.085661000000002,5.085660999999998,5.085661,5.085661,5.085661000000002,1.6011864169946884e-15,-2.9605947323337506e-16,78.33,78.33,78.33,78.33,78.33,0.0,0.0,35.210000000000015,35.20999999999999,35.21000000000001,35.21000000000001,35.210000000000015,1.2306961192854808e-14,4.736951571734001e-15,6.66,5.1,5.975,6.07,5.1,0.5828164376542585,-0.5200000000000001
1 -> 2,5.085661000000002,5.085660999999998,5.085661,5.085661,5.085661000000002,1.6011864169946884e-15,-2.9605947323337506e-16,78.33,78.33,78.33,78.33,78.33,0.0,0.0,35.210000000000015,35.20999999999999,35.21000000000001,35.21000000000001,35.210000000000015,1.2306961192854808e-14,4.736951571734001e-15,6.66,5.1,5.975,6.07,5.1,0.5828164376542585,-0.5200000000000001
1 -> 2,5.085661000000002,5.085660999999998,5.085661,5.085661,5.085661000000002,1.6011864169946884e-15,-2.9605947323337506e-16,78.33,78.33,78.33,78.33,78.33,0.0,0.0,35.210000000000015,35.20999999999999,35.21000000000001,35.21000000000001,35.210000000000015,1.2306961192854808e-14,4.736951571734001e-15,3.96,-1.73,1.2599999999999998,1.405,-1.73,2.1315135467549813,-1.8966666666666667
1 -> 2,5.085661000000002,5.085660999999998,5.085661,5.085661,5.085661000000002,1.6011864169946884e-15,-2.9605947323337506e-16,78.33,78.33,78.33,78.33,78.33,0.0,0.0,35.210000000000015,35.20999999999999,35.21000000000001,35.21000000000001,35.210000000000015,1.2306961192854808e-14,4.736951571734001e-15,3.96,-1.73,1.2599999999999998,1.405,-1.73,2.1315135467549813,-1.8966666666666667
1 -> 2,5.085661000000002,5.085660999999998,5.085661,5.085661,5.085661000000002,1.6011864169946884e-15,-2.9605947323337506e-16,78.33,78.33,78.33,78.33,78.33,0.0,0.0,35.210000000000015,35.20999999999999,35.21000000000001,35.21000000000001,35.210000000000015,1.2306961192854808e-14,4.736951571734001e-15,-3.93,-9.98,-7.0075,-7.0600000000000005,-9.98,2.253457066376016,-2.016666666666667
1 -> 2,5.085661000000002,5.085660999999998,5.085661,5.085661,5.085661000000002,1.6011864169946884e-15,-2.9605947323337506e-16,78.33,78.33,78.33,78.33,78.33,0.0,0.0,35.210000000000015,35.20999999999999,35.21000000000001,35.21000000000001,35.210000000000015,1.2306961192854808e-14,4.736951571734001e-15,-3.93,-9.98,-7.0075,-7.0600000000000005,-9.98,2.253457066376016,-2.016666666666667
1 -> 2,5.098464000000002,5.098463999999995,5.098463999999998,5.098463999999999,5.098464000000002,2.9790409838967277e-15,2.9605947323337506e-16,78.33,78.33,78.33,78.33,78.33,0.0,0.0,35.210000000000015,35.20999999999999,35.21000000000001,35.21000000000001,35.210000000000015,1.2306961192854808e-14,4.736951571734001e-15,-11.93,-18.73,-15.2425,-15.155000000000001,-18.73,2.5383397625219524,-2.266666666666667
1 -> 2,5.098464000000002,5.098463999999995,5.098463999999998,5.098463999999999,5.098464000000002,2.9790409838967277e-15,2.9605947323337506e-16,78.33,78.33,78.33,78.33,78.33,0.0,0.0,35.210000000000015,35.20999999999999,35.21000000000001,35.21000000000001,35.210000000000015,1.2306961192854808e-14,4.736951571734001e-15,-11.93,-18.73,-15.2425,-15.155000000000001,-18.73,2.5383397625219524,-2.266666666666667
1 -> 2,5.098464000000002,5.098463999999995,5.098463999999998,5.098463999999999,5.098464000000002,2.9790409838967277e-15,2.9605947323337506e-16,78.33,78.33,78.33,78.33,78.33,0.0,0.0,35.210000000000015,35.20999999999999,35.21000000000001,35.21000000000001,35.210000000000015,1.2306961192854808e-14,4.736951571734001e-15,-21.11,-24.02,-22.942500000000003,-23.32,-24.02,1.1136510898840806,-0.8300000000000006
1 -> 2,5.098464000000002,5.098463999999995,5.098463999999998,5.098463999999999,5.098464000000002,2.9790409838967277e-15,2.9605947323337506e-16,78.33,78.33,78.33,78.33,78.33,0.0,0.0,35.210000000000015,35.20999999999999,35.21000000000001,35.21000000000001,35.210000000000015,1.2306961192854808e-14,4.736951571734001e-15,-21.11,-24.02,-22.942500000000003,-23.32,-24.02,1.1136510898840806,-0.8300000000000006
1 -> 2,5.098464000000002,5.098463999999995,5.098463999999998,5.098463999999999,5.098464000000002,2.9790409838967277e-15,2.9605947323337506e-16,78.33,78.33,78.33,78.33,78.33,0.0,0.0,35.210000000000015,35.20999999999999,35.21000000000001,35.21000000000001,35.210000000000015,1.2306961192854808e-14,4.736951571734001e-15,-8.45,-21.56,-15.372500000000002,-15.74,-21.56,4.923527064006047,4.37
1 -> 2,5.098464000000002,5.098463999999995,5.098463999999998,5.098463999999999,5.098464000000002,2.9790409838967277e-15,2.9605947323337506e-16,78.33,78.33,78.33,78.33,78.33,0.0,0.0,35.210000000000015,35.20999999999999,35.21000000000001,35.21000000000001,35.210000000000015,1.2306961192854808e-14,4.736951571734001e-15,-8.45,-21.56,-15.372500000000002,-15.74,-21.56,4.923527064006047,4.37
1 -> 2,5.098464000000002,5.098463999999995,5.098463999999998,5.098463999999999,5.098464000000002,2.9790409838967277e-15,2.9605947323337506e-16,78.33,78.33,78.33,78.33,78.33,0.0,0.0,35.210000000000015,35.20999999999999,35.21000000000001,35.21000000000001,35.210000000000015,1.2306961192854808e-14,4.736951571734001e-15,5.91,-3.66,1.595,2.065,-3.66,3.5995867818403826,3.19
1 -> 2,5.098464000000002,5.098463999999995,5.098463999999998,5.098463999999999,5.098464000000002,2.9790409838967277e-15,2.9605947323337506e-16,78.33,78.33,78.33,78.33,78.33,0.0,0.0,35.210000000000015,35.20999999999999,35.21000000000001,35.21000000000001,35.210000000000015,1.2306961192854808e-14,4.736951571734001e-15,5.91,-3.66,1.595,2.065,-3.66,3.5995867818403826,3.19
1 -> 2,5.086941000000002,5.086940999999998,5.086941,5.086941,5.086941000000002,2.0350724194510405e-15,2.9605947323337506e-16,79.25,79.25,79.25,79.25,79.25,0.0,0.0,35.23000000000001,35.22999999999999,35.230000000000004,35.230000000000004,35.23000000000001,9.39959687352353e-15,2.3684757858670005e-15,7.66,5.95,7.015,7.225,5.95,0.6400195309519858,-0.42666666666666675
1 -> 2,5.086941000000002,5.086940999999998,5.086941,5.086941,5.086941000000002,2.0350724194510405e-15,2.9605947323337506e-16,79.25,79.25,79.25,79.25,79.25,0.0,0.0,35.23000000000001,35.22999999999999,35.230000000000004,35.230000000000004,35.23000000000001,9.39959687352353e-15,2.3684757858670005e-15,7.66,5.95,7.015,7.225,5.95,0.6400195309519858,-0.42666666666666675
1 -> 2,5.086941000000002,5.086940999999998,5.086941,5.086941,5.086941000000002,2.0350724194510405e-15,2.9605947323337506e-16,79.25,79.25,79.25,79.25,79.25,0.0,0.0,35.23000000000001,35.22999999999999,35.230000000000004,35.230000000000004,35.23000000000001,9.39959687352353e-15,2.3684757858670005e-15,4.02,-2.23,0.7724999999999999,0.65,-2.23,2.345808762452728,-2.0833333333333335
1 -> 2,5.086941000000002,5.086940999999998,5.086941,5.086941,5.086941000000002,2.0350724194510405e-15,2.9605947323337506e-16,79.25,79.25,79.25,79.25,79.25,0.0,0.0,35.23000000000001,35.22999999999999,35.230000000000004,35.230000000000004,35.23000000000001,9.39959687352353e-15,2.3684757858670005e-15,4.02,-2.23,0.7724999999999999,0.65,-2.23,2.345808762452728,-2.0833333333333335
1 -> 2,5.086941000000002,5.086940999999998,5.086941,5.086941,5.086941000000002,2.0350724194510405e-15,2.9605947323337506e-16,79.25,79.25,79.25,79.25,79.25,0.0,0.0,35.23000000000001,35.22999999999999,35.230000000000004,35.230000000000004,35.23000000000001,9.39959687352353e-15,2.3684757858670005e-15,-3.32,-3.7,-3.5975,-3.685,-3.7,0.16068213964221426,-0.1266666666666668
1 -> 2,5.086941000000002,5.086940999999998,5.086941,5.086941,5.086941000000002,2.0350724194510405e-15,2.9605947323337506e-16,79.25,79.25,79.25,79.25,79.25,0.0,0.0,35.23000000000001,35.22999999999999,35.230000000000004,35.230000000000004,35.23000000000001,9.39959687352353e-15,2.3684757858670005e-15,-3.32,-3.7,-3.5975,-3.685,-3.7,0.16068213964221426,-0.1266666666666668
1 -> 2,5.086941000000002,5.086940999999998,5.086941,5.086941,5.086941000000002,2.0350724194510405e-15,2.9605947323337506e-16,79.25,79.25,79.25,79.25,79.25,0.0,0.0,35.23000000000001,35.22999999999999,35.230000000000004,35.230000000000004,35.23000000000001,9.39959687352353e-15,2.3684757858670005e-15,-4.23,-9.93,-6.785,-6.49,-9.93,2.153677088144831,-1.8999999999999997
1 -> 2,5.086941000000002,5.086940999999998,5.086941,5.086941,5.086941000000002,2.0350724194510405e-15,2.9605947323337506e-16,79.25,79.25,79.25,79.25,79.25,0.0,0.0,35.23000000000001,35.22999999999999,35.230000000000004,35.230000000000004,35.23000000000001,9.39959687352353e-15,2.3684757858670005e-15,-4.23,-9.93,-6.785,-6.49,-9.93,2.153677088144831,-1.8999999999999997
1 -> 2,5.083100000000002,5.0831,5.083100000000001,5.083100000000001,5.0831,8.881784197001252e-16,0.0,79.25,79.25,79.25,79.25,79.25,0.0,0.0,35.23000000000001,35.22999999999999,35.230000000000004,35.230000000000004,35.23000000000001,9.39959687352353e-15,2.3684757858670005e-15,-12.57,-18.37,-15.677499999999998,-15.884999999999998,-18.37,2.1666953523742096,-1.9333333333333336
1 -> 2,5.083100000000002,5.0831,5.083100000000001,5.083100000000001,5.0831,8.881784197001252e-16,0.0,79.25,79.25,79.25,79.25,79.25,0.0,0.0,35.23000000000001,35.22999999999999,35.230000000000004,35.230000000000004,35.23000000000001,9.39959687352353e-15,2.3684757858670005e-15,-12.57,-18.37,-15.677499999999998,-15.884999999999998,-18.37,2.1666953523742096,-1.9333333333333336
1 -> 2,5.083100000000002,5.0831,5.083100000000001,5.083100000000001,5.0831,8.881784197001252e-16,0.0,79.25,79.25,79.25,79.25,79.25,0.0,0.0,35.23000000000001,35.22999999999999,35.230000000000004,35.230000000000004,35.23000000000001,9.39959687352353e-15,2.3684757858670005e-15,-19.98,-28.7,-23.955000000000002,-23.57,-28.7,3.2739616674603873,-2.9066666666666663
1 -> 2,5.083100000000002,5.0831,5.083100000000001,5.083100000000001,5.0831,8.881784197001252e-16,0.0,79.25,79.25,79.25,79.25,79.25,0.0,0.0,35.23000000000001,35.22999999999999,35.230000000000004,35.230000000000004,35.23000000000001,9.39959687352353e-15,2.3684757858670005e-15,-19.98,-28.7,-23.955000000000002,-23.57,-28.7,3.2739616674603873,-2.9066666666666663
1 -> 2,5.083100000000002,5.0831,5.083100000000001,5.083100000000001,5.0831,8.881784197001252e-16,0.0,79.25,79.25,79.25,79.25,79.25,0.0,0.0,35.23000000000001,35.22999999999999,35.230000000000004,35.230000000000004,35.23000000000001,9.39959687352353e-15,2.3684757858670005e-15,-32.86,-43.37,-38.6,-39.085,-43.37,3.972637662812958,-3.5033333333333325
1 -> 2,5.083100000000002,5.0831,5.083100000000001,5.083100000000001,5.0831,8.881784197001252e-16,0.0,79.25,79.25,79.25,79.25,79.25,0.0,0.0,35.23000000000001,35.22999999999999,35.230000000000004,35.230000000000004,35.23000000000001,9.39959687352353e-15,2.3684757858670005e-15,-32.86,-43.37,-38.6,-39.085,-43.37,3.972637662812958,-3.5033333333333325
1 -> 2,5.083100000000002,5.0831,5.083100000000001,5.083100000000001,5.0831,8.881784197001252e-16,0.0,79.25,79.25,79.25,79.25,79.25,0.0,0.0,35.23000000000001,35.22999999999999,35.230000000000004,35.230000000000004,35.23000000000001,9.39959687352353e-15,2.3684757858670005e-15,-35.43,-44.06,-40.625,-41.505,-44.06,3.3358694518820737,2.8766666666666674
1 -> 2,5.083100000000002,5.0831,5.083100000000001,5.083100000000001,5.0831,8.881784197001252e-16,0.0,79.25,79.25,79.25,79.25,79.25,0.0,0.0,35.23000000000001,35.22999999999999,35.230000000000004,35.230000000000004,35.23000000000001,9.39959687352353e-15,2.3684757858670005e-15,-35.43,-44.06,-40.625,-41.505,-44.06,3.3358694518820737,2.8766666666666674
1 -> 2,5.065176000000002,5.065175999999999,5.065176000000001,5.065176000000001,5.065176000000002,1.0877919644084146e-15,5.921189464667501e-16,79.25,79.25,79.25,79.25,79.25,0.0,0.0,35.23000000000001,35.22999999999999,35.230000000000004,35.230000000000004,35.23000000000001,9.39959687352353e-15,2.3684757858670005e-15,-5.43,-29.22,-17.6075,-17.89,-29.22,8.862717909873922,7.93
1 -> 2,5.065176000000002,5.065175999999999,5.065176000000001,5.065176000000001,5.065176000000002,1.0877919644084146e-15,5.921189464667501e-16,79.25,79.25,79.25,79.25,79.25,0.0,0.0,35.23000000000001,35.22999999999999,35.230000000000004,35.230000000000004,35.23000000000001,9.39959687352353e-15,2.3684757858670005e-15,-5.43,-29.22,-17.6075,-17.89,-29.22,8.862717909873922,7.93
1 -> 2,5.065176000000002,5.065175999999999,5.065176000000001,5.065176000000001,5.065176000000002,1.0877919644084146e-15,5.921189464667501e-16,79.25,79.25,79.25,79.25,79.25,0.0,0.0,35.23000000000001,35.22999999999999,35.230000000000004,35.230000000000004,35.23000000000001,9.39959687352353e-15,2.3684757858670005e-15,38.03,4.07,20.7775,20.505000000000003,4.07,12.685021432776534,11.32
1 -> 2,5.065176000000002,5.065175999999999,5.065176000000001,5.065176000000001,5.065176000000002,1.0877919644084146e-15,5.921189464667501e-16,79.25,79.25,79.25,79.25,79.25,0.0,0.0,35.23000000000001,35.22999999999999,35.230000000000004,35.230000000000004,35.23000000000001,9.39959687352353e-15,2.3684757858670005e-15,38.03,4.07,20.7775,20.505000000000003,4.07,12.685021432776534,11.32
1 -> 2,5.065176000000002,5.065175999999999,5.065176000000001,5.065176000000001,5.065176000000002,1.0877919644084146e-15,5.921189464667501e-16,79.25,79.25,79.25,79.25,79.25,0.0,0.0,35.23000000000001,35.22999999999999,35.230000000000004,35.230000000000004,35.23000000000001,9.39959687352353e-15,2.3684757858670005e-15,69.83,49.09,60.75749999999999,62.055,49.09,7.852691815549618,6.913333333333331
1 -> 2,5.065176000000002,5.065175999999999,5.065176000000001,5.065176000000001,5.065176000000002,1.0877919644084146e-15,5.921189464667501e-16,79.25,79.25,79.25,79.25,79.25,0.0,0.0,35.23000000000001,35.22999999999999,35.230000000000004,35.230000000000004,35.23000000000001,9.39959687352353e-15,2.3684757858670005e-15,69.83,49.09,60.75749999999999,62.055,49.09,7.852691815549618,6.913333333333331
1 -> 2,5.065176000000002,5.065175999999999,5.065176000000001,5.065176000000001,5.065176000000002,1.0877919644084146e-15,5.921189464667501e-16,79.25,79.25,79.25,79.25,79.25,0.0,0.0,35.23000000000001,35.22999999999999,35.230000000000004,35.230000000000004,35.23000000000001,9.39959687352353e-15,2.3684757858670005e-15,86.46,72.71,78.895,78.20500000000001,72.71,5.173531192522182,4.583333333333333
1 -> 2,5.065176000000002,5.065175999999999,5.065176000000001,5.065176000000001,5.065176000000002,1.0877919644084146e-15,5.921189464667501e-16,79.25,79.25,79.25,79.25,79.25,0.0,0.0,35.23000000000001,35.22999999999999,35.230000000000004,35.230000000000004,35.23000000000001,9.39959687352353e-15,2.3684757858670005e-15,86.46,72.71,78.895,78.20500000000001,72.71,5.173531192522182,4.583333333333333
1 -> 2,5.065176000000002,5.065175999999999,5.065176000000001,5.065176000000001,5.065176000000002,1.0877919644084146e-15,5.921189464667501e-16,79.25,79.25,79.25,79.25,79.25,0.0,0.0,35.23000000000001,35.22999999999999,35.230000000000004,35.230000000000004,35.23000000000001,9.39959687352353e-15,2.3684757858670005e-15,108.76,92.92,101.2225,101.60499999999999,92.92,5.910043887315898,5.280000000000001
1 -> 2,5.065176000000002,5.065175999999999,5.065176000000001,5.065176000000001,5.065176000000002,1.0877919644084146e-15,5.921189464667501e-16,79.25,79.25,79.25,79.25,79.25,0.0,0.0,35.23000000000001,35.22999999999999,35.230000000000004,35.230000000000004,35.23000000000001,9.39959687352353e-15,2.3684757858670005e-15,108.76,92.92,101.2225,101.60499999999999,92.92,5.910043887315898,5.280000000000001
1 -> 2,5.065176000000002,5.065175999999999,5.065176000000001,5.065176000000001,5.065176000000002,1.0877919644084146e-15,5.921189464667501e-16,79.25,79.25,79.25,79.25,79.25,0.0,0.0,35.23000000000001,35.22999999999999,35.230000000000004,35.230000000000004,35.23000000000001,9.39959687352353e-15,2.3684757858670005e-15,107.45,60.31,86.5425,89.20500000000001,60.31,17.92917646602877,-15.713333333333333
1 -> 2,5.065176000000002,5.065175999999999,5.065176000000001,5.065176000000001,5.065176000000002,1.0877919644084146e-15,5.921189464667501e-16,79.25,79.25,79.25,79.25,79.25,0.0,0.0,35.23000000000001,35.22999999999999,35.230000000000004,35.230000000000004,35.23000000000001,9.39959687352353e-15,2.3684757858670005e-15,107.45,60.31,86.5425,89.20500000000001,60.31,17.92917646602877,-15.713333333333333
1 -> 2,5.065176000000002,5.065175999999999,5.065176000000001,5.065176000000001,5.065176000000002,1.0877919644084146e-15,5.921189464667501e-16,79.25,79.25,79.25,79.25,79.25,0.0,0.0,35.23000000000001,35.22999999999999,35.230000000000004,35.230000000000004,35.23000000000001,9.39959687352353e-15,2.3684757858670005e-15,40.75,-10.19,15.130000000000003,14.98,-10.19,18.931830339404588,-16.98
1 -> 2,5.065176000000002,5.065175999999999,5.065176000000001,5.065176000000001,5.065176000000002,1.0877919644084146e-15,5.921189464667501e-16,79.25,79.25,79.25,79.25,79.25,0.0,0.0,35.23000000000001,35.22999999999999,35.230000000000004,35.230000000000004,35.23000000000001,9.39959687352353e-15,2.3684757858670005e-15,40.75,-10.19,15.130000000000003,14.98,-10.19,18.931830339404588,-16.98
1 -> 2,5.065176000000002,5.065175999999999,5.065176000000001,5.065176000000001,5.065176000000002,1.0877919644084146e-15,5.921189464667501e-16,79.25,79.25,79.25,79.25,79.25,0.0,0.0,35.23000000000001,35.22999999999999,35.230000000000004,35.230000000000004,35.23000000000001,9.39959687352353e-15,2.3684757858670005e-15,-26.79,-65.8,-48.155,-50.015,-65.8,14.748614341693255,-13.003333333333332
1 -> 2,5.065176000000002,5.065175999999999,5.065176000000001,5.065176000000001,5.065176000000002,1.0877919644084146e-15,5.921189464667501e-16,79.25,79.25,79.25,79.25,79.25,0.0,0.0,35.23000000000001,35.22999999999999,35.230000000000004,35.230000000000004,35.23000000000001,9.39959687352353e-15,2.3684757858670005e-15,-26.79,-65.8,-48.155,-50.015,-65.8,14.748614341693255,-13.003333333333332
1 -> 2,5.071577000000001,5.071576999999997,5.071577,5.071577,5.071577000000001,1.88411095042053e-15,5.921189464667501e-16,75.4,75.4,75.4,75.4,75.4,0.0,0.0,35.210000000000015,35.20999999999999,35.21000000000001,35.21000000000001,35.210000000000015,1.2306961192854808e-14,4.736951571734001e-15,-53.88,-68.59,-62.2175,-63.2,-68.59,5.665961414446802,4.903333333333333
1 -> 2,5.071577000000001,5.071576999999997,5.071577,5.071577,5.071577000000001,1.88411095042053e-15,5.921189464667501e-16,75.4,75.4,75.4,75.4,75.4,0.0,0.0,35.210000000000015,35.20999999999999,35.21000000000001,35.21000000000001,35.210000000000015,1.2306961192854808e-14,4.736951571734001e-15,-53.88,-68.59,-62.2175,-63.2,-68.59,5.665961414446802,4.903333333333333
1 -> 2,5.071577000000001,5.071576999999997,5.071577,5.071577,5.071577000000001,1.88411095042053e-15,5.921189464667501e-16,75.4,75.4,75.4,75.4,75.4,0.0,0.0,35.210000000000015,35.20999999999999,35.21000000000001,35.21000000000001,35.210000000000015,1.2306961192854808e-14,4.736951571734001e-15,-42.5,-48.29,-44.6575,-43.92,-48.29,2.2330402481818368,1.9299999999999997
1 -> 2,5.071577000000001,5.071576999999997,5.071577,5.071577,5.071577000000001,1.88411095042053e-15,5.921189464667501e-16,75.4,75.4,75.4,75.4,75.4,0.0,0.0,35.210000000000015,35.20999999999999,35.21000000000001,35.21000000000001,35.210000000000015,1.2306961192854808e-14,4.736951571734001e-15,-42.5,-48.29,-44.6575,-43.92,-48.29,2.2330402481818368,1.9299999999999997
1 -> 2,5.071577000000001,5.071576999999997,5.071577,5.071577,5.071577000000001,1.88411095042053e-15,5.921189464667501e-16,75.4,75.4,75.4,75.4,75.4,0.0,0.0,35.210000000000015,35.20999999999999,35.21000000000001,35.21000000000001,35.210000000000015,1.2306961192854808e-14,4.736951571734001e-15,-18.98,-40.59,-31.1175,-32.45,-40.59,8.180511521292543,7.203333333333334
1 -> 2,5.071577000000001,5.071576999999997,5.071577,5.071577,5.071577000000001,1.88411095042053e-15,5.921189464667501e-16,75.4,75.4,75.4,75.4,75.4,0.0,0.0,35.210000000000015,35.20999999999999,35.21000000000001,35.21000000000001,35.210000000000015,1.2306961192854808e-14,4.736951571734001e-15,-18.98,-40.59,-31.1175,-32.45,-40.59,8.180511521292543,7.203333333333334
1 -> 2,5.071577000000001,5.071576999999997,5.071577,5.071577,5.071577000000001,1.88411095042053e-15,5.921189464667501e-16,75.4,75.4,75.4,75.4,75.4,0.0,0.0,35.210000000000015,35.20999999999999,35.21000000000001,35.21000000000001,35.210000000000015,1.2306961192854808e-14,4.736951571734001e-15,25.51,-7.56,9.585,10.195,-7.56,12.39033191645809,11.023333333333333
1 -> 2,5.071577000000001,5.071576999999997,5.071577,5.071577,5.071577000000001,1.88411095042053e-15,5.921189464667501e-16,75.4,75.4,75.4,75.4,75.4,0.0,0.0,35.210000000000015,35.20999999999999,35.21000000000001,35.21000000000001,35.210000000000015,1.2306961192854808e-14,4.736951571734001e-15,25.51,-7.56,9.585,10.195,-7.56,12.39033191645809,11.023333333333333
1 -> 2,5.086941000000002,5.086940999999998,5.086941,5.086941,5.086941000000002,2.0350724194510405e-15,2.9605947323337506e-16,75.4,75.4,75.4,75.4,75.4,0.0,0.0,35.210000000000015,35.20999999999999,35.21000000000001,35.21000000000001,35.210000000000015,1.2306961192854808e-14,4.736951571734001e-15,40.53,32.73,37.68,38.730000000000004,32.73,3.0783599529619674,2.6000000000000014
1 -> 2,5.086941000000002,5.086940999999998,5.086941,5.086941,5.086941000000002,2.0350724194510405e-15,2.9605947323337506e-16,75.4,75.4,75.4,75.4,75.4,0.0,0.0,35.210000000000015,35.20999999999999,35.21000000000001,35.21000000000001,35.210000000000015,1.2306961192854808e-14,4.736951571734001e-15,40.53,32.73,37.68,38.730000000000004,32.73,3.0783599529619674,2.6000000000000014
1 -> 2,5.086941000000002,5.086940999999998,5.086941,5.086941,5.086941000000002,2.0350724194510405e-15,2.9605947323337506e-16,75.4,75.4,75.4,75.4,75.4,0.0,0.0,35.210000000000015,35.20999999999999,35.21000000000001,35.21000000000001,35.210000000000015,1.2306961192854808e-14,4.736951571734001e-15,39.69,32.65,36.49,36.81,32.65,2.6401515108038778,-2.3466666666666662
1 -> 2,5.086941000000002,5.086940999999998,5.086941,5.086941,5.086941000000002,2.0350724194510405e-15,2.9605947323337506e-16,75.4,75.4,75.4,75.4,75.4,0.0,0.0,35.210000000000015,35.20999999999999,35.21000000000001,35.21000000000001,35.210000000000015,1.2306961192854808e-14,4.736951571734001e-15,39.69,32.65,36.49,36.81,32.65,2.6401515108038778,-2.3466666666666662
1 -> 2,5.086941000000002,5.086940999999998,5.086941,5.086941,5.086941000000002,2.0350724194510405e-15,2.9605947323337506e-16,75.4,75.4,75.4,75.4,75.4,0.0,0.0,35.210000000000015,35.20999999999999,35.21000000000001,35.21000000000001,35.210000000000015,1.2306961192854808e-14,4.736951571734001e-15,28.75,16.79,22.494999999999997,22.22,16.79,4.494777525083973,-3.986666666666667
1 -> 2,5.086941000000002,5.086940999999998,5.086941,5.086941,5.086941000000002,2.0350724194510405e-15,2.9605947323337506e-16,75.4,75.4,75.4,75.4,75.4,0.0,0.0,35.210000000000015,35.20999999999999,35.21000000000001,35.21000000000001,35.210000000000015,1.2306961192854808e-14,4.736951571734001e-15,28.75,16.79,22.494999999999997,22.22,16.79,4.494777525083973,-3.986666666666667
1 -> 2,5.086941000000002,5.086940999999998,5.086941,5.086941,5.086941000000002,2.0350724194510405e-15,2.9605947323337506e-16,75.4,75.4,75.4,75.4,75.4,0.0,0.0,35.210000000000015,35.20999999999999,35.21000000000001,35.21000000000001,35.210000000000015,1.2306961192854808e-14,4.736951571734001e-15,14.8,13.08,13.8825,13.825,13.08,0.6193696392300807,-0.5733333333333336
1 -> 2,5.086941000000002,5.086940999999998,5.086941,5.086941,5.086941000000002,2.0350724194510405e-15,2.9605947323337506e-16,75.4,75.4,75.4,75.4,75.4,0.0,0.0,35.210000000000015,35.20999999999999,35.21000000000001,35.21000000000001,35.210000000000015,1.2306961192854808e-14,4.736951571734001e-15,14.8,13.08,13.8825,13.825,13.08,0.6193696392300807,-0.5733333333333336
1 -> 2,5.093343000000002,5.093342999999997,5.093343,5.093343000000001,5.093343000000002,1.831026719408895e-15,8.881784197001252e-16,75.4,75.4,75.4,75.4,75.4,0.0,0.0,35.210000000000015,35.20999999999999,35.21000000000001,35.21000000000001,35.210000000000015,1.2306961192854808e-14,4.736951571734001e-15,11.4,-0.84,5.695,6.109999999999999,-0.84,4.6055048583190095,-4.08
1 -> 2,5.093343000000002,5.093342999999997,5.093343,5.093343000000001,5.093343000000002,1.831026719408895e-15,8.881784197001252e-16,75.4,75.4,75.4,75.4,75.4,0.0,0.0,35.210000000000015,35.20999999999999,35.21000000000001,35.21000000000001,35.210000000000015,1.2306961192854808e-14,4.736951571734001e-15,11.4,-0.84,5.695,6.109999999999999,-0.84,4.6055048583190095,-4.08
1 -> 2,5.093343000000002,5.093342999999997,5.093343,5.093343000000001,5.093343000000002,1.831026719408895e-15,8.881784197001252e-16,75.4,75.4,75.4,75.4,75.4,0.0,0.0,35.210000000000015,35.20999999999999,35.21000000000001,35.21000000000001,35.210000000000015,1.2306961192854808e-14,4.736951571734001e-15,-5.5,-16.26,-11.1325,-11.385,-16.26,4.011679043742159,-3.5866666666666673
1 -> 2,5.093343000000002,5.093342999999997,5.093343,5.093343000000001,5.093343000000002,1.831026719408895e-15,8.881784197001252e-16,75.4,75.4,75.4,75.4,75.4,0.0,0.0,35.210000000000015,35.20999999999999,35.21000000000001,35.21000000000001,35.210000000000015,1.2306961192854808e-14,4.736951571734001e-15,-5.5,-16.26,-11.1325,-11.385,-16.26,4.011679043742159,-3.5866666666666673
1 -> 2,5.093343000000002,5.093342999999997,5.093343,5.093343000000001,5.093343000000002,1.831026719408895e-15,8.881784197001252e-16,75.4,75.4,75.4,75.4,75.4,0.0,0.0,35.210000000000015,35.20999999999999,35.21000000000001,35.21000000000001,35.210000000000015,1.2306961192854808e-14,4.736951571734001e-15,-19.18,-26.57,-23.07,-23.265,-26.57,2.7708031326674947,-2.4633333333333334
1 -> 2,5.093343000000002,5.093342999999997,5.093343,5.093343000000001,5.093343000000002,1.831026719408895e-15,8.881784197001252e-16,75.4,75.4,75.4,75.4,75.4,0.0,0.0,35.210000000000015,35.20999999999999,35.21000000000001,35.21000000000001,35.210000000000015,1.2306961192854808e-14,4.736951571734001e-15,-19.18,-26.57,-23.07,-23.265,-26.57,2.7708031326674947,-2.4633333333333334
1 -> 2,5.093343000000002,5.093342999999997,5.093343,5.093343000000001,5.093343000000002,1.831026719408895e-15,8.881784197001252e-16,75.4,75.4,75.4,75.4,75.4,0.0,0.0,35.210000000000015,35.20999999999999,35.21000000000001,35.21000000000001,35.210000000000015,1.2306961192854808e-14,4.736951571734001e-15,-27.86,-28.51,-28.3175,-28.45,-28.51,0.2656477931397138,-0.20333333333333314
1 -> 2,5.093343000000002,5.093342999999997,5.093343,5.093343000000001,5.093343000000002,1.831026719408895e-15,8.881784197001252e-16,75.4,75.4,75.4,75.4,75.4,0.0,0.0,35.210000000000015,35.20999999999999,35.21000000000001,35.21000000000001,35.210000000000015,1.2306961192854808e-14,4.736951571734001e-15,-27.86,-28.51,-28.3175,-28.45,-28.51,0.2656477931397138,-0.20333333333333314
1 -> 2,5.138155000000002,5.138155000000001,5.138155000000001,5.138155000000001,5.138155000000001,6.280369834735101e-16,0.0,75.4,75.4,75.4,75.4,75.4,0.0,0.0,35.210000000000015,35.20999999999999,35.21000000000001,35.21000000000001,35.210000000000015,1.2306961192854808e-14,4.736951571734001e-15,-27.51,-28.63,-28.275000000000002,-28.48,-28.63,0.4467941360403013,0.336666666666666
1 -> 2,5.138155000000002,5.138155000000001,5.138155000000001,5.138155000000001,5.138155000000001,6.280369834735101e-16,0.0,75.4,75.4,75.4,75.4,75.4,0.0,0.0,35.210000000000015,35.20999999999999,35.21000000000001,35.21000000000001,35.210000000000015,1.2306961192854808e-14,4.736951571734001e-15,-27.51,-28.63,-28.275000000000002,-28.48,-28.63,0.4467941360403013,0.336666666666666
1 -> 2,5.138155000000002,5.138155000000001,5.138155000000001,5.138155000000001,5.138155000000001,6.280369834735101e-16,0.0,75.4,75.4,75.4,75.4,75.4,0.0,0.0,35.210000000000015,35.20999999999999,35.21000000000001,35.21000000000001,35.210000000000015,1.2306961192854808e-14,4.736951571734001e-15,-14.52,-25.51,-20.2525,-20.490000000000002,-25.51,4.122756207926926,3.663333333333334
1 -> 2,5.138155000000002,5.138155000000001,5.138155000000001,5.138155000000001,5.138155000000001,6.280369834735101e-16,0.0,75.4,75.4,75.4,75.4,75.4,0.0,0.0,35.210000000000015,35.20999999999999,35.21000000000001,35.21000000000001,35.210000000000015,1.2306961192854808e-14,4.736951571734001e-15,-14.52,-25.51,-20.2525,-20.490000000000002,-25.51,4.122756207926926,3.663333333333334
1 -> 2,5.138155000000002,5.138155000000001,5.138155000000001,5.138155000000001,5.138155000000001,6.280369834735101e-16,0.0,75.4,75.4,75.4,75.4,75.4,0.0,0.0,35.210000000000015,35.20999999999999,35.21000000000001,35.21000000000001,35.210000000000015,1.2306961192854808e-14,4.736951571734001e-15,-3.78,-10.83,-6.985,-6.664999999999999,-10.83,2.6402130595843967,2.35
1 -> 2,5.138155000000002,5.138155000000001,5.138155000000001,5.138155000000001,5.138155000000001,6.280369834735101e-16,0.0,75.4,75.4,75.4,75.4,75.4,0.0,0.0,35.210000000000015,35.20999999999999,35.21000000000001,35.21000000000001,35.210000000000015,1.2306961192854808e-14,4.736951571734001e-15,-3.78,-10.83,-6.985,-6.664999999999999,-10.83,2.6402130595843967,2.35
1 -> 2,5.138155000000002,5.138155000000001,5.138155000000001,5.138155000000001,5.138155000000001,6.280369834735101e-16,0.0,75.4,75.4,75.4,75.4,75.4,0.0,0.0,35.210000000000015,35.20999999999999,35.21000000000001,35.21000000000001,35.210000000000015,1.2306961192854808e-14,4.736951571734001e-15,1.44,-2.32,-0.38,-0.31999999999999995,-2.32,1.405560386465128,1.2533333333333332
1 -> 2,5.138155000000002,5.138155000000001,5.138155000000001,5.138155000000001,5.138155000000001,6.280369834735101e-16,0.0,75.4,75.4,75.4,75.4,75.4,0.0,0.0,35.210000000000015,35.20999999999999,35.21000000000001,35.21000000000001,35.210000000000015,1.2306961192854808e-14,4.736951571734001e-15,1.44,-2.32,-0.38,-0.31999999999999995,-2.32,1.405560386465128,1.2533333333333332
1 -> 2,5.145836000000002,5.145836,5.145836000000001,5.145836000000001,5.145836000000002,7.691850745534255e-16,-2.9605947323337506e-16,73.0,73.0,73.0,73.0,73.0,0.0,0.0,35.23000000000001,35.22999999999999,35.230000000000004,35.230000000000004,35.23000000000001,9.39959687352353e-15,2.3684757858670005e-15,3.91,2.3,3.1325,3.16,2.3,0.5946164730311465,0.5366666666666667
1 -> 2,5.145836000000002,5.145836,5.145836000000001,5.145836000000001,5.145836000000002,7.691850745534255e-16,-2.9605947323337506e-16,73.0,73.0,73.0,73.0,73.0,0.0,0.0,35.23000000000001,35.22999999999999,35.230000000000004,35.230000000000004,35.23000000000001,9.39959687352353e-15,2.3684757858670005e-15,3.91,2.3,3.1325,3.16,2.3,0.5946164730311465,0.5366666666666667
1 -> 2,5.145836000000002,5.145836,5.145836000000001,5.145836000000001,5.145836000000002,7.691850745534255e-16,-2.9605947323337506e-16,73.0,73.0,73.0,73.0,73.0,0.0,0.0,35.23000000000001,35.22999999999999,35.230000000000004,35.230000000000004,35.23000000000001,9.39959687352353e-15,2.3684757858670005e-15,7.23,4.59,5.905,5.9,4.59,0.9884457496494182,0.8800000000000002
1 -> 2,5.145836000000002,5.145836,5.145836000000001,5.145836000000001,5.145836000000002,7.691850745534255e-16,-2.9605947323337506e-16,73.0,73.0,73.0,73.0,73.0,0.0,0.0,35.23000000000001,35.22999999999999,35.230000000000004,35.230000000000004,35.23000000000001,9.39959687352353e-15,2.3684757858670005e-15,7.23,4.59,5.905,5.9,4.59,0.9884457496494182,0.8800000000000002
1 -> 2,5.145836000000002,5.145836,5.145836000000001,5.145836000000001,5.145836000000002,7.691850745534255e-16,-2.9605947323337506e-16,73.0,73.0,73.0,73.0,73.0,0.0,0.0,35.23000000000001,35.22999999999999,35.230000000000004,35.230000000000004,35.23000000000001,9.39959687352353e-15,2.3684757858670005e-15,10.8,8.02,9.32,9.23,8.02,1.0370149468546734,0.9266666666666671
1 -> 2,5.145836000000002,5.145836,5.145836000000001,5.145836000000001,5.145836000000002,7.691850745534255e-16,-2.9605947323337506e-16,73.0,73.0,73.0,73.0,73.0,0.0,0.0,35.23000000000001,35.22999999999999,35.230000000000004,35.230000000000004,35.23000000000001,9.39959687352353e-15,2.3684757858670005e-15,10.8,8.02,9.32,9.23,8.02,1.0370149468546734,0.9266666666666671
1 -> 2,5.145836000000002,5.145836,5.145836000000001,5.145836000000001,5.145836000000002,7.691850745534255e-16,-2.9605947323337506e-16,73.0,73.0,73.0,73.0,73.0,0.0,0.0,35.23000000000001,35.22999999999999,35.230000000000004,35.230000000000004,35.23000000000001,9.39959687352353e-15,2.3684757858670005e-15,15.33,12.13,13.895,14.06,12.13,1.212301530148337,1.0666666666666664
1 -> 2,5.145836000000002,5.145836,5.145836000000001,5.145836000000001,5.145836000000002,7.691850745534255e-16,-2.9605947323337506e-16,73.0,73.0,73.0,73.0,73.0,0.0,0.0,35.23000000000001,35.22999999999999,35.230000000000004,35.230000000000004,35.23000000000001,9.39959687352353e-15,2.3684757858670005e-15,15.33,12.13,13.895,14.06,12.13,1.212301530148337,1.0666666666666664
1 -> 2,5.1291920000000015,5.129192,5.1291920000000015,5.1291920000000015,5.1291920000000015,9.930136612989092e-16,-2.9605947323337506e-16,73.0,73.0,73.0,73.0,73.0,0.0,0.0,35.23000000000001,35.22999999999999,35.230000000000004,35.230000000000004,35.23000000000001,9.39959687352353e-15,2.3684757858670005e-15,15.47,12.07,14.1025,14.434999999999999,12.07,1.3096445128354488,-1.1333333333333335
1 -> 2,5.1291920000000015,5.129192,5.1291920000000015,5.1291920000000015,5.1291920000000015,9.930136612989092e-16,-2.9605947323337506e-16,73.0,73.0,73.0,73.0,73.0,0.0,0.0,35.23000000000001,35.22999999999999,35.230000000000004,35.230000000000004,35.23000000000001,9.39959687352353e-15,2.3684757858670005e-15,15.47,12.07,14.1025,14.434999999999999,12.07,1.3096445128354488,-1.1333333333333335
1 -> 2,5.1291920000000015,5.129192,5.1291920000000015,5.1291920000000015,5.1291920000000015,9.930136612989092e-16,-2.9605947323337506e-16,73.0,73.0,73.0,73.0,73.0,0.0,0.0,35.23000000000001,35.22999999999999,35.230000000000004,35.230000000000004,35.23000000000001,9.39959687352353e-15,2.3684757858670005e-15,9.58,-0.68,4.577500000000001,4.705,-0.68,3.8382702809989815,-3.4200000000000004
1 -> 2,5.1291920000000015,5.129192,5.1291920000000015,5.1291920000000015,5.1291920000000015,9.930136612989092e-16,-2.9605947323337506e-16,73.0,73.0,73.0,73.0,73.0,0.0,0.0,35.23000000000001,35.22999999999999,35.230000000000004,35.230000000000004,35.23000000000001,9.39959687352353e-15,2.3684757858670005e-15,9.58,-0.68,4.577500000000001,4.705,-0.68,3.8382702809989815,-3.4200000000000004
1 -> 2,5.1291920000000015,5.129192,5.1291920000000015,5.1291920000000015,5.1291920000000015,9.930136612989092e-16,-2.9605947323337506e-16,73.0,73.0,73.0,73.0,73.0,0.0,0.0,35.23000000000001,35.22999999999999,35.230000000000004,35.230000000000004,35.23000000000001,9.39959687352353e-15,2.3684757858670005e-15,-3.96,-7.74,-6.45,-7.050000000000001,-7.74,1.527121475194426,-1.2333333333333334
1 -> 2,5.1291920000000015,5.129192,5.1291920000000015,5.1291920000000015,5.1291920000000015,9.930136612989092e-16,-2.9605947323337506e-16,73.0,73.0,73.0,73.0,73.0,0.0,0.0,35.23000000000001,35.22999999999999,35.230000000000004,35.230000000000004,35.23000000000001,9.39959687352353e-15,2.3684757858670005e-15,-3.96,-7.74,-6.45,-7.050000000000001,-7.74,1.527121475194426,-1.2333333333333334
1 -> 2,5.1291920000000015,5.129192,5.1291920000000015,5.1291920000000015,5.1291920000000015,9.930136612989092e-16,-2.9605947323337506e-16,73.0,73.0,73.0,73.0,73.0,0.0,0.0,35.23000000000001,35.22999999999999,35.230000000000004,35.230000000000004,35.23000000000001,9.39959687352353e-15,2.3684757858670005e-15,2.92,-6.21,-1.8250000000000002,-2.005,-6.21,3.4310821907963676,3.043333333333333
1 -> 2,5.1291920000000015,5.129192,5.1291920000000015,5.1291920000000015,5.1291920000000015,9.930136612989092e-16,-2.9605947323337506e-16,73.0,73.0,73.0,73.0,73.0,0.0,0.0,35.23000000000001,35.22999999999999,35.230000000000004,35.230000000000004,35.23000000000001,9.39959687352353e-15,2.3684757858670005e-15,2.92,-6.21,-1.8250000000000002,-2.005,-6.21,3.4310821907963676,3.043333333333333
1 -> 2,5.188087000000002,5.188086999999998,5.188087,5.188087000000001,5.188087000000002,1.831026719408895e-15,8.881784197001252e-16,73.0,73.0,73.0,73.0,73.0,0.0,0.0,35.23000000000001,35.22999999999999,35.230000000000004,35.230000000000004,35.23000000000001,9.39959687352353e-15,2.3684757858670005e-15,7.99,5.71,7.105,7.36,5.71,0.849720542296113,0.5100000000000001
1 -> 2,5.188087000000002,5.188086999999998,5.188087,5.188087000000001,5.188087000000002,1.831026719408895e-15,8.881784197001252e-16,73.0,73.0,73.0,73.0,73.0,0.0,0.0,35.23000000000001,35.22999999999999,35.230000000000004,35.230000000000004,35.23000000000001,9.39959687352353e-15,2.3684757858670005e-15,7.99,5.71,7.105,7.36,5.71,0.849720542296113,0.5100000000000001
1 -> 2,5.188087000000002,5.188086999999998,5.188087,5.188087000000001,5.188087000000002,1.831026719408895e-15,8.881784197001252e-16,73.0,73.0,73.0,73.0,73.0,0.0,0.0,35.23000000000001,35.22999999999999,35.230000000000004,35.230000000000004,35.23000000000001,9.39959687352353e-15,2.3684757858670005e-15,5.49,-1.53,1.9400000000000002,1.9000000000000001,-1.53,2.6325747852625194,-2.34
1 -> 2,5.188087000000002,5.188086999999998,5.188087,5.188087000000001,5.188087000000002,1.831026719408895e-15,8.881784197001252e-16,73.0,73.0,73.0,73.0,73.0,0.0,0.0,35.23000000000001,35.22999999999999,35.230000000000004,35.230000000000004,35.23000000000001,9.39959687352353e-15,2.3684757858670005e-15,5.49,-1.53,1.9400000000000002,1.9000000000000001,-1.53,2.6325747852625194,-2.34
1 -> 2,5.188087000000002,5.188086999999998,5.188087,5.188087000000001,5.188087000000002,1.831026719408895e-15,8.881784197001252e-16,73.0,73.0,73.0,73.0,73.0,0.0,0.0,35.23000000000001,35.22999999999999,35.230000000000004,35.230000000000004,35.23000000000001,9.39959687352353e-15,2.3684757858670005e-15,-3.12,-4.28,-3.9000000000000004,-4.1,-4.28,0.46070597999157775,-0.35666666666666674
1 -> 2,5.188087000000002,5.188086999999998,5.188087,5.188087000000001,5.188087000000002,1.831026719408895e-15,8.881784197001252e-16,73.0,73.0,73.0,73.0,73.0,0.0,0.0,35.23000000000001,35.22999999999999,35.230000000000004,35.230000000000004,35.23000000000001,9.39959687352353e-15,2.3684757858670005e-15,-3.12,-4.28,-3.9000000000000004,-4.1,-4.28,0.46070597999157775,-0.35666666666666674
1 -> 2,5.188087000000002,5.188086999999998,5.188087,5.188087000000001,5.188087000000002,1.831026719408895e-15,8.881784197001252e-16,73.0,73.0,73.0,73.0,73.0,0.0,0.0,35.23000000000001,35.22999999999999,35.230000000000004,35.230000000000004,35.23000000000001,9.39959687352353e-15,2.3684757858670005e-15,-4.04,-5.79,-4.6674999999999995,-4.42,-5.79,0.6951753375947683,-0.5833333333333334
1 -> 2,5.188087000000002,5.188086999999998,5.188087,5.188087000000001,5.188087000000002,1.831026719408895e-15,8.881784197001252e-16,73.0,73.0,73.0,73.0,73.0,0.0,0.0,35.23000000000001,35.22999999999999,35.230000000000004,35.230000000000004,35.23000000000001,9.39959687352353e-15,2.3684757858670005e-15,-4.04,-5.79,-4.6674999999999995,-4.42,-5.79,0.6951753375947683,-0.5833333333333334
1 -> 2,5.217535000000002,5.217535,5.217535000000001,5.217535000000001,5.217535,8.881784197001252e-16,0.0,73.0,73.0,73.0,73.0,73.0,0.0,0.0,35.23000000000001,35.22999999999999,35.230000000000004,35.230000000000004,35.23000000000001,9.39959687352353e-15,2.3684757858670005e-15,-7.36,-13.86,-10.497499999999999,-10.385,-13.86,2.4276364534254298,-2.1666666666666665
1 -> 2,5.217535000000002,5.217535,5.217535000000001,5.217535000000001,5.217535,8.881784197001252e-16,0.0,73.0,73.0,73.0,73.0,73.0,0.0,0.0,35.23000000000001,35.22999999999999,35.230000000000004,35.230000000000004,35.23000000000001,9.39959687352353e-15,2.3684757858670005e-15,-7.36,-13.86,-10.497499999999999,-10.385,-13.86,2.4276364534254298,-2.1666666666666665
1 -> 2,5.217535000000002,5.217535,5.217535000000001,5.217535000000001,5.217535,8.881784197001252e-16,0.0,73.0,73.0,73.0,73.0,73.0,0.0,0.0,35.23000000000001,35.22999999999999,35.230000000000004,35.230000000000004,35.23000000000001,9.39959687352353e-15,2.3684757858670005e-15,-16.39,-24.31,-20.375,-20.4,-24.31,2.958492014523615,-2.6399999999999992
1 -> 2,5.217535000000002,5.217535,5.217535000000001,5.217535000000001,5.217535,8.881784197001252e-16,0.0,73.0,73.0,73.0,73.0,73.0,0.0,0.0,35.23000000000001,35.22999999999999,35.230000000000004,35.230000000000004,35.23000000000001,9.39959687352353e-15,2.3684757858670005e-15,-16.39,-24.31,-20.375,-20.4,-24.31,2.958492014523615,-2.6399999999999992
1 -> 2,5.217535000000002,5.217535,5.217535000000001,5.217535000000001,5.217535,8.881784197001252e-16,0.0,73.0,73.0,73.0,73.0,73.0,0.0,0.0,35.23000000000001,35.22999999999999,35.230000000000004,35.230000000000004,35.23000000000001,9.39959687352353e-15,2.3684757858670005e-15,-26.51,-30.11,-28.5425,-28.775,-30.11,1.3562332948279947,-1.1999999999999993
1 -> 2,5.217535000000002,5.217535,5.217535000000001,5.217535000000001,5.217535,8.881784197001252e-16,0.0,73.0,73.0,73.0,73.0,73.0,0.0,0.0,35.23000000000001,35.22999999999999,35.230000000000004,35.230000000000004,35.23000000000001,9.39959687352353e-15,2.3684757858670005e-15,-26.51,-30.11,-28.5425,-28.775,-30.11,1.3562332948279947,-1.1999999999999993
1 -> 2,5.217535000000002,5.217535,5.217535000000001,5.217535000000001,5.217535,8.881784197001252e-16,0.0,73.0,73.0,73.0,73.0,73.0,0.0,0.0,35.23000000000001,35.22999999999999,35.230000000000004,35.230000000000004,35.23000000000001,9.39959687352353e-15,2.3684757858670005e-15,-30.77,-34.26,-32.334999999999994,-32.155,-34.26,1.3115734825010752,-1.1633333333333329
1 -> 2,5.217535000000002,5.217535,5.217535000000001,5.217535000000001,5.217535,8.881784197001252e-16,0.0,73.0,73.0,73.0,73.0,73.0,0.0,0.0,35.23000000000001,35.22999999999999,35.230000000000004,35.230000000000004,35.23000000000001,9.39959687352353e-15,2.3684757858670005e-15,-30.77,-34.26,-32.334999999999994,-32.155,-34.26,1.3115734825010752,-1.1633333333333329
1 -> 2,5.140715000000002,5.140714999999998,5.140715,5.140715,5.140715000000002,1.6011864169946884e-15,2.9605947323337506e-16,72.0,72.0,72.0,72.0,72.0,0.0,0.0,35.210000000000015,35.20999999999999,35.21000000000001,35.21000000000001,35.210000000000015,1.2306961192854808e-14,4.736951571734001e-15,-36.03,-38.85,-37.834999999999994,-38.23,-38.85,1.1291921891334524,-0.8999999999999986
1 -> 2,5.140715000000002,5.140714999999998,5.140715,5.140715,5.140715000000002,1.6011864169946884e-15,2.9605947323337506e-16,72.0,72.0,72.0,72.0,72.0,0.0,0.0,35.210000000000015,35.20999999999999,35.21000000000001,35.21000000000001,35.210000000000015,1.2306961192854808e-14,4.736951571734001e-15,-36.03,-38.85,-37.834999999999994,-38.23,-38.85,1.1291921891334524,-0.8999999999999986
1 -> 2,5.140715000000002,5.140714999999998,5.140715,5.140715,5.140715000000002,1.6011864169946884e-15,2.9605947323337506e-16,72.0,72.0,72.0,72.0,72.0,0.0,0.0,35.210000000000015,35.20999999999999,35.21000000000001,35.21000000000001,35.210000000000015,1.2306961192854808e-14,4.736951571734001e-15,-16.03,-36.63,-27.42,-28.509999999999998,-36.63,7.778103882052489,6.866666666666667
1 -> 2,5.140715000000002,5.140714999999998,5.140715,5.140715,5.140715000000002,1.6011864169946884e-15,2.9605947323337506e-16,72.0,72.0,72.0,72.0,72.0,0.0,0.0,35.210000000000015,35.20999999999999,35.21000000000001,35.21000000000001,35.210000000000015,1.2306961192854808e-14,4.736951571734001e-15,-16.03,-36.63,-27.42,-28.509999999999998,-36.63,7.778103882052489,6.866666666666667
1 -> 2,5.140715000000002,5.140714999999998,5.140715,5.140715,5.140715000000002,1.6011864169946884e-15,2.9605947323337506e-16,72.0,72.0,72.0,72.0,72.0,0.0,0.0,35.210000000000015,35.20999999999999,35.21000000000001,35.21000000000001,35.210000000000015,1.2306961192854808e-14,4.736951571734001e-15,13.41,-6.46,4.592499999999999,5.71,-6.46,7.508722844132682,6.623333333333332
1 -> 2,5.140715000000002,5.140714999999998,5.140715,5.140715,5.140715000000002,1.6011864169946884e-15,2.9605947323337506e-16,72.0,72.0,72.0,72.0,72.0,0.0,0.0,35.210000000000015,35.20999999999999,35.21000000000001,35.21000000000001,35.210000000000015,1.2306961192854808e-14,4.736951571734001e-15,13.41,-6.46,4.592499999999999,5.71,-6.46,7.508722844132682,6.623333333333332
1 -> 2,5.140715000000002,5.140714999999998,5.140715,5.140715,5.140715000000002,1.6011864169946884e-15,2.9605947323337506e-16,72.0,72.0,72.0,72.0,72.0,0.0,0.0,35.210000000000015,35.20999999999999,35.21000000000001,35.21000000000001,35.210000000000015,1.2306961192854808e-14,4.736951571734001e-15,15.83,15.04,15.4475,15.46,15.04,0.2818133247382036,-0.12333333333333367
1 -> 2,5.140715000000002,5.140714999999998,5.140715,5.140715,5.140715000000002,1.6011864169946884e-15,2.9605947323337506e-16,72.0,72.0,72.0,72.0,72.0,0.0,0.0,35.210000000000015,35.20999999999999,35.21000000000001,35.21000000000001,35.210000000000015,1.2306961192854808e-14,4.736951571734001e-15,15.83,15.04,15.4475,15.46,15.04,0.2818133247382036,-0.12333333333333367
1 -> 2,5.0357280000000015,5.035727999999997,5.035728000000001,5.035728000000001,5.0357280000000015,2.082963028648268e-15,-5.921189464667501e-16,72.0,72.0,72.0,72.0,72.0,0.0,0.0,35.210000000000015,35.20999999999999,35.21000000000001,35.21000000000001,35.210000000000015,1.2306961192854808e-14,4.736951571734001e-15,14.7,14.2,14.4375,14.425,14.2,0.1849831073368593,-0.16666666666666666
1 -> 2,5.0357280000000015,5.035727999999997,5.035728000000001,5.035728000000001,5.0357280000000015,2.082963028648268e-15,-5.921189464667501e-16,72.0,72.0,72.0,72.0,72.0,0.0,0.0,35.210000000000015,35.20999999999999,35.21000000000001,35.21000000000001,35.210000000000015,1.2306961192854808e-14,4.736951571734001e-15,14.7,14.2,14.4375,14.425,14.2,0.1849831073368593,-0.16666666666666666
1 -> 2,5.0357280000000015,5.035727999999997,5.035728000000001,5.035728000000001,5.0357280000000015,2.082963028648268e-15,-5.921189464667501e-16,72.0,72.0,72.0,72.0,72.0,0.0,0.0,35.210000000000015,35.20999999999999,35.21000000000001,35.21000000000001,35.210000000000015,1.2306961192854808e-14,4.736951571734001e-15,14.06,12.15,13.3425,13.58,12.15,0.7390661337119974,-0.6366666666666667
1 -> 2,5.0357280000000015,5.035727999999997,5.035728000000001,5.035728000000001,5.0357280000000015,2.082963028648268e-15,-5.921189464667501e-16,72.0,72.0,72.0,72.0,72.0,0.0,0.0,35.210000000000015,35.20999999999999,35.21000000000001,35.21000000000001,35.210000000000015,1.2306961192854808e-14,4.736951571734001e-15,14.06,12.15,13.3425,13.58,12.15,0.7390661337119974,-0.6366666666666667
1 -> 2,5.0357280000000015,5.035727999999997,5.035728000000001,5.035728000000001,5.0357280000000015,2.082963028648268e-15,-5.921189464667501e-16,72.0,72.0,72.0,72.0,72.0,0.0,0.0,35.210000000000015,35.20999999999999,35.21000000000001,35.21000000000001,35.210000000000015,1.2306961192854808e-14,4.736951571734001e-15,10.05,-1.36,4.632500000000001,4.92,-1.36,4.279762697860712,-3.8033333333333332
1 -> 2,5.0357280000000015,5.035727999999997,5.035728000000001,5.035728000000001,5.0357280000000015,2.082963028648268e-15,-5.921189464667501e-16,72.0,72.0,72.0,72.0,72.0,0.0,0.0,35.210000000000015,35.20999999999999,35.21000000000001,35.21000000000001,35.210000000000015,1.2306961192854808e-14,4.736951571734001e-15,10.05,-1.36,4.632500000000001,4.92,-1.36,4.279762697860712,-3.8033333333333332
1 -> 2,5.0357280000000015,5.035727999999997,5.035728000000001,5.035728000000001,5.0357280000000015,2.082963028648268e-15,-5.921189464667501e-16,72.0,72.0,72.0,72.0,72.0,0.0,0.0,35.210000000000015,35.20999999999999,35.21000000000001,35.21000000000001,35.210000000000015,1.2306961192854808e-14,4.736951571734001e-15,-5.47,-14.63,-10.3,-10.55,-14.63,3.416972344049627,-3.0533333333333332
1 -> 2,5.0357280000000015,5.035727999999997,5.035728000000001,5.035728000000001,5.0357280000000015,2.082963028648268e-15,-5.921189464667501e-16,72.0,72.0,72.0,72.0,72.0,0.0,0.0,35.210000000000015,35.20999999999999,35.21000000000001,35.21000000000001,35.210000000000015,1.2306961192854808e-14,4.736951571734001e-15,-5.47,-14.63,-10.3,-10.55,-14.63,3.416972344049627,-3.0533333333333332
1 -> 2,5.024205000000002,5.0242049999999985,5.024205,5.024205,5.024205000000002,1.6011864169946884e-15,-2.9605947323337506e-16,72.0,72.0,72.0,72.0,72.0,0.0,0.0,35.210000000000015,35.20999999999999,35.21000000000001,35.21000000000001,35.210000000000015,1.2306961192854808e-14,4.736951571734001e-15,-16.95,-20.8,-19.272499999999997,-19.67,-20.8,1.5042834673026226,-1.2833333333333339
1 -> 2,5.024205000000002,5.0242049999999985,5.024205,5.024205,5.024205000000002,1.6011864169946884e-15,-2.9605947323337506e-16,72.0,72.0,72.0,72.0,72.0,0.0,0.0,35.210000000000015,35.20999999999999,35.21000000000001,35.21000000000001,35.210000000000015,1.2306961192854808e-14,4.736951571734001e-15,-16.95,-20.8,-19.272499999999997,-19.67,-20.8,1.5042834673026226,-1.2833333333333339
1 -> 2,5.024205000000002,5.0242049999999985,5.024205,5.024205,5.024205000000002,1.6011864169946884e-15,-2.9605947323337506e-16,72.0,72.0,72.0,72.0,72.0,0.0,0.0,35.210000000000015,35.20999999999999,35.21000000000001,35.21000000000001,35.210000000000015,1.2306961192854808e-14,4.736951571734001e-15,-9.74,-19.91,-15.352500000000001,-15.88,-19.91,3.836752370169334,3.39
1 -> 2,5.024205000000002,5.0242049999999985,5.024205,5.024205,5.024205000000002,1.6011864169946884e-15,-2.9605947323337506e-16,72.0,72.0,72.0,72.0,72.0,0.0,0.0,35.210000000000015,35.20999999999999,35.21000000000001,35.21000000000001,35.210000000000015,1.2306961192854808e-14,4.736951571734001e-15,-9.74,-19.91,-15.352500000000001,-15.88,-19.91,3.836752370169334,3.39
1 -> 2,5.024205000000002,5.0242049999999985,5.024205,5.024205,5.024205000000002,1.6011864169946884e-15,-2.9605947323337506e-16,72.0,72.0,72.0,72.0,72.0,0.0,0.0,35.210000000000015,35.20999999999999,35.21000000000001,35.21000000000001,35.210000000000015,1.2306961192854808e-14,4.736951571734001e-15,9.49,-4.82,2.5300000000000002,2.725,-4.82,5.350144857851982,4.7700000000000005
1 -> 2,5.024205000000002,5.0242049999999985,5.024205,5.024205,5.024205000000002,1.6011864169946884e-15,-2.9605947323337506e-16,72.0,72.0,72.0,72.0,72.0,0.0,0.0,35.210000000000015,35.20999999999999,35.21000000000001,35.21000000000001,35.210000000000015,1.2306961192854808e-14,4.736951571734001e-15,9.49,-4.82,2.5300000000000002,2.725,-4.82,5.350144857851982,4.7700000000000005
1 -> 2,5.024205000000002,5.0242049999999985,5.024205,5.024205,5.024205000000002,1.6011864169946884e-15,-2.9605947323337506e-16,72.0,72.0,72.0,72.0,72.0,0.0,0.0,35.210000000000015,35.20999999999999,35.21000000000001,35.21000000000001,35.210000000000015,1.2306961192854808e-14,4.736951571734001e-15,18.26,12.94,15.9225,16.245,12.94,1.9955246803785722,1.773333333333334
1 -> 2,5.024205000000002,5.0242049999999985,5.024205,5.024205,5.024205000000002,1.6011864169946884e-15,-2.9605947323337506e-16,72.0,72.0,72.0,72.0,72.0,0.0,0.0,35.210000000000015,35.20999999999999,35.21000000000001,35.21000000000001,35.210000000000015,1.2306961192854808e-14,4.736951571734001e-15,18.26,12.94,15.9225,16.245,12.94,1.9955246803785722,1.773333333333334
1 -> 2,5.1368740000000015,5.136873999999997,5.136873999999999,5.136874,5.1368740000000015,2.1297770317619676e-15,-2.9605947323337506e-16,72.0,72.0,72.0,72.0,72.0,0.0,0.0,35.210000000000015,35.20999999999999,35.21000000000001,35.21000000000001,35.210000000000015,1.2306961192854808e-14,4.736951571734001e-15,25.05,19.4,22.002499999999998,21.78,19.4,2.119214182191126,1.883333333333334
1 -> 2,5.1368740000000015,5.136873999999997,5.136873999999999,5.136874,5.1368740000000015,2.1297770317619676e-15,-2.9605947323337506e-16,72.0,72.0,72.0,72.0,72.0,0.0,0.0,35.210000000000015,35.20999999999999,35.21000000000001,35.21000000000001,35.210000000000015,1.2306961192854808e-14,4.736951571734001e-15,25.05,19.4,22.002499999999998,21.78,19.4,2.119214182191126,1.883333333333334
1 -> 2,5.1368740000000015,5.136873999999997,5.136873999999999,5.136874,5.1368740000000015,2.1297770317619676e-15,-2.9605947323337506e-16,72.0,72.0,72.0,72.0,72.0,0.0,0.0,35.210000000000015,35.20999999999999,35.21000000000001,35.21000000000001,35.210000000000015,1.2306961192854808e-14,4.736951571734001e-15,34.58,27.64,31.2775,31.445,27.64,2.6004843298893374,2.3133333333333326
1 -> 2,5.1368740000000015,5.136873999999997,5.136873999999999,5.136874,5.1368740000000015,2.1297770317619676e-15,-2.9605947323337506e-16,72.0,72.0,72.0,72.0,72.0,0.0,0.0,35.210000000000015,35.20999999999999,35.21000000000001,35.21000000000001,35.210000000000015,1.2306961192854808e-14,4.736951571734001e-15,34.58,27.64,31.2775,31.445,27.64,2.6004843298893374,2.3133333333333326
1 -> 2,5.1368740000000015,5.136873999999997,5.136873999999999,5.136874,5.1368740000000015,2.1297770317619676e-15,-2.9605947323337506e-16,72.0,72.0,72.0,72.0,72.0,0.0,0.0,35.210000000000015,35.20999999999999,35.21000000000001,35.21000000000001,35.210000000000015,1.2306961192854808e-14,4.736951571734001e-15,36.93,35.94,36.5875,36.74,35.94,0.38284298348017426,0.28000000000000114
1 -> 2,5.1368740000000015,5.136873999999997,5.136873999999999,5.136874,5.1368740000000015,2.1297770317619676e-15,-2.9605947323337506e-16,72.0,72.0,72.0,72.0,72.0,0.0,0.0,35.210000000000015,35.20999999999999,35.21000000000001,35.21000000000001,35.210000000000015,1.2306961192854808e-14,4.736951571734001e-15,36.93,35.94,36.5875,36.74,35.94,0.38284298348017426,0.28000000000000114
1 -> 2,5.1368740000000015,5.136873999999997,5.136873999999999,5.136874,5.1368740000000015,2.1297770317619676e-15,-2.9605947323337506e-16,72.0,72.0,72.0,72.0,72.0,0.0,0.0,35.210000000000015,35.20999999999999,35.21000000000001,35.21000000000001,35.210000000000015,1.2306961192854808e-14,4.736951571734001e-15,36.33,32.88,34.805,35.004999999999995,32.88,1.2990092378424398,-1.1499999999999986
1 -> 2,5.1368740000000015,5.136873999999997,5.136873999999999,5.136874,5.1368740000000015,2.1297770317619676e-15,-2.9605947323337506e-16,72.0,72.0,72.0,72.0,72.0,0.0,0.0,35.210000000000015,35.20999999999999,35.21000000000001,35.21000000000001,35.210000000000015,1.2306961192854808e-14,4.736951571734001e-15,36.33,32.88,34.805,35.004999999999995,32.88,1.2990092378424398,-1.1499999999999986
1 -> 2,5.206012000000002,5.206011999999997,5.206011999999999,5.206012,5.206012000000002,2.3498992183808826e-15,5.921189464667501e-16,71.88,71.88,71.88,71.88,71.88,0.0,0.0,35.23000000000001,35.22999999999999,35.230000000000004,35.230000000000004,35.23000000000001,9.39959687352353e-15,2.3684757858670005e-15,30.97,25.6,28.1425,28.0,25.6,2.0142911284121756,-1.7899999999999991
1 -> 2,5.206012000000002,5.206011999999997,5.206011999999999,5.206012,5.206012000000002,2.3498992183808826e-15,5.921189464667501e-16,71.88,71.88,71.88,71.88,71.88,0.0,0.0,35.23000000000001,35.22999999999999,35.230000000000004,35.230000000000004,35.23000000000001,9.39959687352353e-15,2.3684757858670005e-15,30.97,25.6,28.1425,28.0,25.6,2.0142911284121756,-1.7899999999999991
1 -> 2,5.206012000000002,5.206011999999997,5.206011999999999,5.206012,5.206012000000002,2.3498992183808826e-15,5.921189464667501e-16,71.88,71.88,71.88,71.88,71.88,0.0,0.0,35.23000000000001,35.22999999999999,35.230000000000004,35.230000000000004,35.23000000000001,9.39959687352353e-15,2.3684757858670005e-15,24.63,23.43,23.947499999999998,23.865000000000002,23.43,0.4495761893161153,-0.39999999999999974
1 -> 2,5.206012000000002,5.206011999999997,5.206011999999999,5.206012,5.206012000000002,2.3498992183808826e-15,5.921189464667501e-16,71.88,71.88,71.88,71.88,71.88,0.0,0.0,35.23000000000001,35.22999999999999,35.230000000000004,35.230000000000004,35.23000000000001,9.39959687352353e-15,2.3684757858670005e-15,24.63,23.43,23.947499999999998,23.865000000000002,23.43,0.4495761893161153,-0.39999999999999974
1 -> 2,5.206012000000002,5.206011999999997,5.206011999999999,5.206012,5.206012000000002,2.3498992183808826e-15,5.921189464667501e-16,71.88,71.88,71.88,71.88,71.88,0.0,0.0,35.23000000000001,35.22999999999999,35.230000000000004,35.230000000000004,35.23000000000001,9.39959687352353e-15,2.3684757858670005e-15,23.15,21.11,22.2975,22.465,21.11,0.7712125193485903,-0.6799999999999997
1 -> 2,5.206012000000002,5.206011999999997,5.206011999999999,5.206012,5.206012000000002,2.3498992183808826e-15,5.921189464667501e-16,71.88,71.88,71.88,71.88,71.88,0.0,0.0,35.23000000000001,35.22999999999999,35.230000000000004,35.230000000000004,35.23000000000001,9.39959687352353e-15,2.3684757858670005e-15,23.15,21.11,22.2975,22.465,21.11,0.7712125193485903,-0.6799999999999997
1 -> 2,5.206012000000002,5.206011999999997,5.206011999999999,5.206012,5.206012000000002,2.3498992183808826e-15,5.921189464667501e-16,71.88,71.88,71.88,71.88,71.88,0.0,0.0,35.23000000000001,35.22999999999999,35.230000000000004,35.230000000000004,35.23000000000001,9.39959687352353e-15,2.3684757858670005e-15,19.4,10.43,15.137500000000001,15.360000000000001,10.43,3.365103081630635,-2.9899999999999998
1 -> 2,5.206012000000002,5.206011999999997,5.206011999999999,5.206012,5.206012000000002,2.3498992183808826e-15,5.921189464667501e-16,71.88,71.88,71.88,71.88,71.88,0.0,0.0,35.23000000000001,35.22999999999999,35.230000000000004,35.230000000000004,35.23000000000001,9.39959687352353e-15,2.3684757858670005e-15,19.4,10.43,15.137500000000001,15.360000000000001,10.43,3.365103081630635,-2.9899999999999998
1 -> 2,5.211133000000002,5.211132999999999,5.211133000000001,5.211133000000001,5.211133000000002,1.1749496091904413e-15,-2.9605947323337506e-16,71.88,71.88,71.88,71.88,71.88,0.0,0.0,35.23000000000001,35.22999999999999,35.230000000000004,35.230000000000004,35.23000000000001,9.39959687352353e-15,2.3684757858670005e-15,7.32,2.8,4.625,4.1899999999999995,2.8,1.7347838482070326,-1.5066666666666668
1 -> 2,5.211133000000002,5.211132999999999,5.211133000000001,5.211133000000001,5.211133000000002,1.1749496091904413e-15,-2.9605947323337506e-16,71.88,71.88,71.88,71.88,71.88,0.0,0.0,35.23000000000001,35.22999999999999,35.230000000000004,35.230000000000004,35.23000000000001,9.39959687352353e-15,2.3684757858670005e-15,7.32,2.8,4.625,4.1899999999999995,2.8,1.7347838482070326,-1.5066666666666668
1 -> 2,5.211133000000002,5.211132999999999,5.211133000000001,5.211133000000001,5.211133000000002,1.1749496091904413e-15,-2.9605947323337506e-16,71.88,71.88,71.88,71.88,71.88,0.0,0.0,35.23000000000001,35.22999999999999,35.230000000000004,35.230000000000004,35.23000000000001,9.39959687352353e-15,2.3684757858670005e-15,2.56,0.02,1.57,1.85,0.02,0.9802550688468793,-0.8466666666666667
1 -> 2,5.211133000000002,5.211132999999999,5.211133000000001,5.211133000000001,5.211133000000002,1.1749496091904413e-15,-2.9605947323337506e-16,71.88,71.88,71.88,71.88,71.88,0.0,0.0,35.23000000000001,35.22999999999999,35.230000000000004,35.230000000000004,35.23000000000001,9.39959687352353e-15,2.3684757858670005e-15,2.56,0.02,1.57,1.85,0.02,0.9802550688468793,-0.8466666666666667
1 -> 2,5.211133000000002,5.211132999999999,5.211133000000001,5.211133000000001,5.211133000000002,1.1749496091904413e-15,-2.9605947323337506e-16,71.88,71.88,71.88,71.88,71.88,0.0,0.0,35.23000000000001,35.22999999999999,35.230000000000004,35.230000000000004,35.23000000000001,9.39959687352353e-15,2.3684757858670005e-15,-2.02,-8.89,-5.5575,-5.66,-8.89,2.5795966254435982,-2.29
1 -> 2,5.211133000000002,5.211132999999999,5.211133000000001,5.211133000000001,5.211133000000002,1.1749496091904413e-15,-2.9605947323337506e-16,71.88,71.88,71.88,71.88,71.88,0.0,0.0,35.23000000000001,35.22999999999999,35.230000000000004,35.230000000000004,35.23000000000001,9.39959687352353e-15,2.3684757858670005e-15,-2.02,-8.89,-5.5575,-5.66,-8.89,2.5795966254435982,-2.29
1 -> 2,5.211133000000002,5.211132999999999,5.211133000000001,5.211133000000001,5.211133000000002,1.1749496091904413e-15,-2.9605947323337506e-16,71.88,71.88,71.88,71.88,71.88,0.0,0.0,35.23000000000001,35.22999999999999,35.230000000000004,35.230000000000004,35.23000000000001,9.39959687352353e-15,2.3684757858670005e-15,-5.76,-10.04,-8.567499999999999,-9.235,-10.04,1.7336287809101465,1.4266666666666665
1 -> 2,5.211133000000002,5.211132999999999,5.211133000000001,5.211133000000001,5.211133000000002,1.1749496091904413e-15,-2.9605947323337506e-16,71.88,71.88,71.88,71.88,71.88,0.0,0.0,35.23000000000001,35.22999999999999,35.230000000000004,35.230000000000004,35.23000000000001,9.39959687352353e-15,2.3684757858670005e-15,-5.76,-10.04,-8.567499999999999,-9.235,-10.04,1.7336287809101465,1.4266666666666665
1 -> 2,5.209853000000002,5.209852999999999,5.209853000000001,5.209853000000001,5.209852999999999,1.4043333874306805e-15,0.0,71.88,71.88,71.88,71.88,71.88,0.0,0.0,35.23000000000001,35.22999999999999,35.230000000000004,35.230000000000004,35.23000000000001,9.39959687352353e-15,2.3684757858670005e-15,7.04,-2.19,2.7975000000000003,3.17,-2.19,3.4785153082888685,3.0766666666666667
1 -> 2,5.209853000000002,5.209852999999999,5.209853000000001,5.209853000000001,5.209852999999999,1.4043333874306805e-15,0.0,71.88,71.88,71.88,71.88,71.88,0.0,0.0,35.23000000000001,35.22999999999999,35.230000000000004,35.230000000000004,35.23000000000001,9.39959687352353e-15,2.3684757858670005e-15,7.04,-2.19,2.7975000000000003,3.17,-2.19,3.4785153082888685,3.0766666666666667
1 -> 2,5.209853000000002,5.209852999999999,5.209853000000001,5.209853000000001,5.209852999999999,1.4043333874306805e-15,0.0,71.88,71.88,71.88,71.88,71.88,0.0,0.0,35.23000000000001,35.22999999999999,35.230000000000004,35.230000000000004,35.23000000000001,9.39959687352353e-15,2.3684757858670005e-15,8.4,8.11,8.219999999999999,8.184999999999999,8.11,0.10885770528538653,-0.020000000000000167
1 -> 2,5.209853000000002,5.209852999999999,5.209853000000001,5.209853000000001,5.209852999999999,1.4043333874306805e-15,0.0,71.88,71.88,71.88,71.88,71.88,0.0,0.0,35.23000000000001,35.22999999999999,35.230000000000004,35.230000000000004,35.23000000000001,9.39959687352353e-15,2.3684757858670005e-15,8.4,8.11,8.219999999999999,8.184999999999999,8.11,0.10885770528538653,-0.020000000000000167
1 -> 2,5.209853000000002,5.209852999999999,5.209853000000001,5.209853000000001,5.209852999999999,1.4043333874306805e-15,0.0,71.88,71.88,71.88,71.88,71.88,0.0,0.0,35.23000000000001,35.22999999999999,35.230000000000004,35.230000000000004,35.23000000000001,9.39959687352353e-15,2.3684757858670005e-15,14.42,8.57,11.155000000000001,10.815000000000001,8.57,2.2132385772889465,1.95
1 -> 2,5.209853000000002,5.209852999999999,5.209853000000001,5.209853000000001,5.209852999999999,1.4043333874306805e-15,0.0,71.88,71.88,71.88,71.88,71.88,0.0,0.0,35.23000000000001,35.22999999999999,35.230000000000004,35.230000000000004,35.23000000000001,9.39959687352353e-15,2.3684757858670005e-15,14.42,8.57,11.155000000000001,10.815000000000001,8.57,2.2132385772889465,1.95
1 -> 2,5.209853000000002,5.209852999999999,5.209853000000001,5.209853000000001,5.209852999999999,1.4043333874306805e-15,0.0,71.88,71.88,71.88,71.88,71.88,0.0,0.0,35.23000000000001,35.22999999999999,35.230000000000004,35.230000000000004,35.23000000000001,9.39959687352353e-15,2.3684757858670005e-15,23.87,17.31,20.9075,21.225,17.31,2.474695688362511,2.1866666666666674
1 -> 2,5.209853000000002,5.209852999999999,5.209853000000001,5.209853000000001,5.209852999999999,1.4043333874306805e-15,0.0,71.88,71.88,71.88,71.88,71.88,0.0,0.0,35.23000000000001,35.22999999999999,35.230000000000004,35.230000000000004,35.23000000000001,9.39959687352353e-15,2.3684757858670005e-15,23.87,17.31,20.9075,21.225,17.31,2.474695688362511,2.1866666666666674
1 -> 2,5.191928000000002,5.191927999999996,5.191927999999999,5.191928,5.191928000000002,2.3498992183808826e-15,5.921189464667501e-16,71.88,71.88,71.88,71.88,71.88,0.0,0.0,35.23000000000001,35.22999999999999,35.230000000000004,35.230000000000004,35.23000000000001,9.39959687352353e-15,2.3684757858670005e-15,24.64,24.48,24.5425,24.525,24.48,0.06417748826496752,-0.0266666666666661
1 -> 2,5.191928000000002,5.191927999999996,5.191927999999999,5.191928,5.191928000000002,2.3498992183808826e-15,5.921189464667501e-16,71.88,71.88,71.88,71.88,71.88,0.0,0.0,35.23000000000001,35.22999999999999,35.230000000000004,35.230000000000004,35.23000000000001,9.39959687352353e-15,2.3684757858670005e-15,24.64,24.48,24.5425,24.525,24.48,0.06417748826496752,-0.0266666666666661
1 -> 2,5.191928000000002,5.191927999999996,5.191927999999999,5.191928,5.191928000000002,2.3498992183808826e-15,5.921189464667501e-16,71.88,71.88,71.88,71.88,71.88,0.0,0.0,35.23000000000001,35.22999999999999,35.230000000000004,35.230000000000004,35.23000000000001,9.39959687352353e-15,2.3684757858670005e-15,25.48,24.77,25.150000000000002,25.175,24.77,0.25524498036200466,0.11666666666666714
1 -> 2,5.191928000000002,5.191927999999996,5.191927999999999,5.191928,5.191928000000002,2.3498992183808826e-15,5.921189464667501e-16,71.88,71.88,71.88,71.88,71.88,0.0,0.0,35.23000000000001,35.22999999999999,35.230000000000004,35.230000000000004,35.23000000000001,9.39959687352353e-15,2.3684757858670005e-15,25.48,24.77,25.150000000000002,25.175,24.77,0.25524498036200466,0.11666666666666714
1 -> 2,5.191928000000002,5.191927999999996,5.191927999999999,5.191928,5.191928000000002,2.3498992183808826e-15,5.921189464667501e-16,71.88,71.88,71.88,71.88,71.88,0.0,0.0,35.23000000000001,35.22999999999999,35.230000000000004,35.230000000000004,35.23000000000001,9.39959687352353e-15,2.3684757858670005e-15,24.0,18.98,21.445,21.4,18.98,1.8884186506174947,-1.6733333333333331
1 -> 2,5.191928000000002,5.191927999999996,5.191927999999999,5.191928,5.191928000000002,2.3498992183808826e-15,5.921189464667501e-16,71.88,71.88,71.88,71.88,71.88,0.0,0.0,35.23000000000001,35.22999999999999,35.230000000000004,35.230000000000004,35.23000000000001,9.39959687352353e-15,2.3684757858670005e-15,24.0,18.98,21.445,21.4,18.98,1.8884186506174947,-1.6733333333333331
1 -> 2,5.191928000000002,5.191927999999996,5.191927999999999,5.191928,5.191928000000002,2.3498992183808826e-15,5.921189464667501e-16,71.88,71.88,71.88,71.88,71.88,0.0,0.0,35.23000000000001,35.22999999999999,35.230000000000004,35.230000000000004,35.23000000000001,9.39959687352353e-15,2.3684757858670005e-15,17.99,14.98,16.7125,16.939999999999998,14.98,1.1243970606507288,-1.0033333333333327
1 -> 2,5.191928000000002,5.191927999999996,5.191927999999999,5.191928,5.191928000000002,2.3498992183808826e-15,5.921189464667501e-16,71.88,71.88,71.88,71.88,71.88,0.0,0.0,35.23000000000001,35.22999999999999,35.230000000000004,35.230000000000004,35.23000000000001,9.39959687352353e-15,2.3684757858670005e-15,17.99,14.98,16.7125,16.939999999999998,14.98,1.1243970606507288,-1.0033333333333327
1 -> 2,5.241861000000002,5.241860999999999,5.241861,5.241861,5.241860999999999,1.4043333874306805e-15,0.0,71.56,71.56,71.56,71.56,71.56,0.0,0.0,35.210000000000015,35.20999999999999,35.21000000000001,35.21000000000001,35.210000000000015,1.2306961192854808e-14,4.736951571734001e-15,12.15,-3.4,4.7525,5.13,-3.4,5.8390297781395155,-5.183333333333334
1 -> 2,5.241861000000002,5.241860999999999,5.241861,5.241861,5.241860999999999,1.4043333874306805e-15,0.0,71.56,71.56,71.56,71.56,71.56,0.0,0.0,35.210000000000015,35.20999999999999,35.21000000000001,35.21000000000001,35.210000000000015,1.2306961192854808e-14,4.736951571734001e-15,12.15,-3.4,4.7525,5.13,-3.4,5.8390297781395155,-5.183333333333334
1 -> 2,5.241861000000002,5.241860999999999,5.241861,5.241861,5.241860999999999,1.4043333874306805e-15,0.0,71.56,71.56,71.56,71.56,71.56,0.0,0.0,35.210000000000015,35.20999999999999,35.21000000000001,35.21000000000001,35.210000000000015,1.2306961192854808e-14,4.736951571734001e-15,-7.96,-11.18,-9.6375,-9.705,-11.18,1.494061160060056,0.12666666666666662
1 -> 2,5.241861000000002,5.241860999999999,5.241861,5.241861,5.241860999999999,1.4043333874306805e-15,0.0,71.56,71.56,71.56,71.56,71.56,0.0,0.0,35.210000000000015,35.20999999999999,35.21000000000001,35.21000000000001,35.210000000000015,1.2306961192854808e-14,4.736951571734001e-15,-7.96,-11.18,-9.6375,-9.705,-11.18,1.494061160060056,0.12666666666666662
1 -> 2,5.241861000000002,5.241860999999999,5.241861,5.241861,5.241860999999999,1.4043333874306805e-15,0.0,71.56,71.56,71.56,71.56,71.56,0.0,0.0,35.210000000000015,35.20999999999999,35.21000000000001,35.21000000000001,35.210000000000015,1.2306961192854808e-14,4.736951571734001e-15,14.01,-2.58,6.205,6.695,-2.58,6.243406522083918,5.53
1 -> 2,5.241861000000002,5.241860999999999,5.241861,5.241861,5.241860999999999,1.4043333874306805e-15,0.0,71.56,71.56,71.56,71.56,71.56,0.0,0.0,35.210000000000015,35.20999999999999,35.21000000000001,35.21000000000001,35.210000000000015,1.2306961192854808e-14,4.736951571734001e-15,14.01,-2.58,6.205,6.695,-2.58,6.243406522083918,5.53
1 -> 2,5.241861000000002,5.241860999999999,5.241861,5.241861,5.241860999999999,1.4043333874306805e-15,0.0,71.56,71.56,71.56,71.56,71.56,0.0,0.0,35.210000000000015,35.20999999999999,35.21000000000001,35.21000000000001,35.210000000000015,1.2306961192854808e-14,4.736951571734001e-15,16.6,12.69,15.2075,15.77,12.69,1.5440915614043103,-1.213333333333333
1 -> 2,5.241861000000002,5.241860999999999,5.241861,5.241861,5.241860999999999,1.4043333874306805e-15,0.0,71.56,71.56,71.56,71.56,71.56,0.0,0.0,35.210000000000015,35.20999999999999,35.21000000000001,35.21000000000001,35.210000000000015,1.2306961192854808e-14,4.736951571734001e-15,16.6,12.69,15.2075,15.77,12.69,1.5440915614043103,-1.213333333333333
1 -> 2,5.271308000000002,5.2713079999999986,5.271308000000001,5.271308000000001,5.271308000000002,1.538370149106851e-15,5.921189464667501e-16,71.56,71.56,71.56,71.56,71.56,0.0,0.0,35.210000000000015,35.20999999999999,35.21000000000001,35.21000000000001,35.210000000000015,1.2306961192854808e-14,4.736951571734001e-15,9.62,2.04,5.5249999999999995,5.220000000000001,2.04,2.85186342590244,-2.5266666666666664
1 -> 2,5.271308000000002,5.2713079999999986,5.271308000000001,5.271308000000001,5.271308000000002,1.538370149106851e-15,5.921189464667501e-16,71.56,71.56,71.56,71.56,71.56,0.0,0.0,35.210000000000015,35.20999999999999,35.21000000000001,35.21000000000001,35.210000000000015,1.2306961192854808e-14,4.736951571734001e-15,9.62,2.04,5.5249999999999995,5.220000000000001,2.04,2.85186342590244,-2.5266666666666664
1 -> 2,5.271308000000002,5.2713079999999986,5.271308000000001,5.271308000000001,5.271308000000002,1.538370149106851e-15,5.921189464667501e-16,71.56,71.56,71.56,71.56,71.56,0.0,0.0,35.210000000000015,35.20999999999999,35.21000000000001,35.21000000000001,35.210000000000015,1.2306961192854808e-14,4.736951571734001e-15,1.05,0.8,0.9075000000000001,0.89,0.8,0.09443913383762052,-0.0666666666666667
1 -> 2,5.271308000000002,5.2713079999999986,5.271308000000001,5.271308000000001,5.271308000000002,1.538370149106851e-15,5.921189464667501e-16,71.56,71.56,71.56,71.56,71.56,0.0,0.0,35.210000000000015,35.20999999999999,35.21000000000001,35.21000000000001,35.210000000000015,1.2306961192854808e-14,4.736951571734001e-15,1.05,0.8,0.9075000000000001,0.89,0.8,0.09443913383762052,-0.0666666666666667
1 -> 2,5.271308000000002,5.2713079999999986,5.271308000000001,5.271308000000001,5.271308000000002,1.538370149106851e-15,5.921189464667501e-16,71.56,71.56,71.56,71.56,71.56,0.0,0.0,35.210000000000015,35.20999999999999,35.21000000000001,35.21000000000001,35.210000000000015,1.2306961192854808e-14,4.736951571734001e-15,-0.34,-22.79,-9.4625,-7.36,-22.79,8.584091026427899,-7.483333333333333
1 -> 2,5.271308000000002,5.2713079999999986,5.271308000000001,5.271308000000001,5.271308000000002,1.538370149106851e-15,5.921189464667501e-16,71.56,71.56,71.56,71.56,71.56,0.0,0.0,35.210000000000015,35.20999999999999,35.21000000000001,35.21000000000001,35.210000000000015,1.2306961192854808e-14,4.736951571734001e-15,-0.34,-22.79,-9.4625,-7.36,-22.79,8.584091026427899,-7.483333333333333
1 -> 2,5.271308000000002,5.2713079999999986,5.271308000000001,5.271308000000001,5.271308000000002,1.538370149106851e-15,5.921189464667501e-16,71.56,71.56,71.56,71.56,71.56,0.0,0.0,35.210000000000015,35.20999999999999,35.21000000000001,35.21000000000001,35.210000000000015,1.2306961192854808e-14,4.736951571734001e-15,-40.27,-123.38,-79.685,-77.545,-123.38,31.10181867672693,-27.70333333333333
1 -> 2,5.271308000000002,5.2713079999999986,5.271308000000001,5.271308000000001,5.271308000000002,1.538370149106851e-15,5.921189464667501e-16,71.56,71.56,71.56,71.56,71.56,0.0,0.0,35.210000000000015,35.20999999999999,35.21000000000001,35.21000000000001,35.210000000000015,1.2306961192854808e-14,4.736951571734001e-15,-40.27,-123.38,-79.685,-77.545,-123.38,31.10181867672693,-27.70333333333333
1 -> 2,5.236740000000002,5.236739999999999,5.236740000000001,5.236740000000001,5.236739999999999,1.4043333874306805e-15,0.0,71.56,71.56,71.56,71.56,71.56,0.0,0.0,35.210000000000015,35.20999999999999,35.21000000000001,35.21000000000001,35.210000000000015,1.2306961192854808e-14,4.736951571734001e-15,-156.73,-246.07,-203.04250000000002,-204.685,-246.07,33.395198288825895,-29.78
1 -> 2,5.236740000000002,5.236739999999999,5.236740000000001,5.236740000000001,5.236739999999999,1.4043333874306805e-15,0.0,71.56,71.56,71.56,71.56,71.56,0.0,0.0,35.210000000000015,35.20999999999999,35.21000000000001,35.21000000000001,35.210000000000015,1.2306961192854808e-14,4.736951571734001e-15,-156.73,-246.07,-203.04250000000002,-204.685,-246.07,33.395198288825895,-29.78
1 -> 2,5.236740000000002,5.236739999999999,5.236740000000001,5.236740000000001,5.236739999999999,1.4043333874306805e-15,0.0,71.56,71.56,71.56,71.56,71.56,0.0,0.0,35.210000000000015,35.20999999999999,35.21000000000001,35.21000000000001,35.210000000000015,1.2306961192854808e-14,4.736951571734001e-15,-267.06,-289.47,-281.8475,-285.43,-289.47,9.056407607324223,-7.316666666666663
1 -> 2,5.236740000000002,5.236739999999999,5.236740000000001,5.236740000000001,5.236739999999999,1.4043333874306805e-15,0.0,71.56,71.56,71.56,71.56,71.56,0.0,0.0,35.210000000000015,35.20999999999999,35.21000000000001,35.21000000000001,35.210000000000015,1.2306961192854808e-14,4.736951571734001e-15,-267.06,-289.47,-281.8475,-285.43,-289.47,9.056407607324223,-7.316666666666663
1 -> 2,5.236740000000002,5.236739999999999,5.236740000000001,5.236740000000001,5.236739999999999,1.4043333874306805e-15,0.0,71.56,71.56,71.56,71.56,71.56,0.0,0.0,35.210000000000015,35.20999999999999,35.21000000000001,35.21000000000001,35.210000000000015,1.2306961192854808e-14,4.736951571734001e-15,-207.35,-279.79,-246.495,-249.42,-279.79,27.258031385263326,24.146666666666675
1 -> 2,5.236740000000002,5.236739999999999,5.236740000000001,5.236740000000001,5.236739999999999,1.4043333874306805e-15,0.0,71.56,71.56,71.56,71.56,71.56,0.0,0.0,35.210000000000015,35.20999999999999,35.21000000000001,35.21000000000001,35.210000000000015,1.2306961192854808e-14,4.736951571734001e-15,-207.35,-279.79,-246.495,-249.42,-279.79,27.258031385263326,24.146666666666675
1 -> 2,5.236740000000002,5.236739999999999,5.236740000000001,5.236740000000001,5.236739999999999,1.4043333874306805e-15,0.0,71.56,71.56,71.56,71.56,71.56,0.0,0.0,35.210000000000015,35.20999999999999,35.21000000000001,35.21000000000001,35.210000000000015,1.2306961192854808e-14,4.736951571734001e-15,-110.51,-176.96,-140.905,-138.075,-176.96,24.95690936394168,22.150000000000002
1 -> 2,5.236740000000002,5.236739999999999,5.236740000000001,5.236740000000001,5.236739999999999,1.4043333874306805e-15,0.0,71.56,71.56,71.56,71.56,71.56,0.0,0.0,35.210000000000015,35.20999999999999,35.21000000000001,35.21000000000001,35.210000000000015,1.2306961192854808e-14,4.736951571734001e-15,-110.51,-176.96,-140.905,-138.075,-176.96,24.95690936394168,22.150000000000002
1 -> 2,5.166321000000002,5.166320999999998,5.166321,5.166321000000001,5.166321000000002,1.538370149106851e-15,5.921189464667501e-16,71.56,71.56,71.56,71.56,71.56,0.0,0.0,35.210000000000015,35.20999999999999,35.21000000000001,35.21000000000001,35.210000000000015,1.2306961192854808e-14,4.736951571734001e-15,-78.06,-99.44,-88.6125,-88.475,-99.44,7.902813976679445,7.126666666666665
1 -> 2,5.166321000000002,5.166320999999998,5.166321,5.166321000000001,5.166321000000002,1.538370149106851e-15,5.921189464667501e-16,71.56,71.56,71.56,71.56,71.56,0.0,0.0,35.210000000000015,35.20999999999999,35.21000000000001,35.21000000000001,35.210000000000015,1.2306961192854808e-14,4.736951571734001e-15,-78.06,-99.44,-88.6125,-88.475,-99.44,7.902813976679445,7.126666666666665
1 -> 2,5.166321000000002,5.166320999999998,5.166321,5.166321000000001,5.166321000000002,1.538370149106851e-15,5.921189464667501e-16,71.56,71.56,71.56,71.56,71.56,0.0,0.0,35.210000000000015,35.20999999999999,35.21000000000001,35.21000000000001,35.210000000000015,1.2306961192854808e-14,4.736951571734001e-15,-30.4,-69.14,-50.650000000000006,-51.53,-69.14,14.483046986045444,12.913333333333334
1 -> 2,5.166321000000002,5.166320999999998,5.166321,5.166321000000001,5.166321000000002,1.538370149106851e-15,5.921189464667501e-16,71.56,71.56,71.56,71.56,71.56,0.0,0.0,35.210000000000015,35.20999999999999,35.21000000000001,35.21000000000001,35.210000000000015,1.2306961192854808e-14,4.736951571734001e-15,-30.4,-69.14,-50.650000000000006,-51.53,-69.14,14.483046986045444,12.913333333333334
1 -> 2,5.166321000000002,5.166320999999998,5.166321,5.166321000000001,5.166321000000002,1.538370149106851e-15,5.921189464667501e-16,71.56,71.56,71.56,71.56,71.56,0.0,0.0,35.210000000000015,35.20999999999999,35.21000000000001,35.21000000000001,35.210000000000015,1.2306961192854808e-14,4.736951571734001e-15,33.4,-14.96,8.969999999999999,8.72,-14.96,18.002208197885057,16.12
1 -> 2,5.166321000000002,5.166320999999998,5.166321,5.166321000000001,5.166321000000002,1.538370149106851e-15,5.921189464667501e-16,71.56,71.56,71.56,71.56,71.56,0.0,0.0,35.210000000000015,35.20999999999999,35.21000000000001,35.21000000000001,35.210000000000015,1.2306961192854808e-14,4.736951571734001e-15,33.4,-14.96,8.969999999999999,8.72,-14.96,18.002208197885057,16.12
1 -> 2,5.166321000000002,5.166320999999998,5.166321,5.166321000000001,5.166321000000002,1.538370149106851e-15,5.921189464667501e-16,71.56,71.56,71.56,71.56,71.56,0.0,0.0,35.210000000000015,35.20999999999999,35.21000000000001,35.21000000000001,35.210000000000015,1.2306961192854808e-14,4.736951571734001e-15,132.74,52.2,90.2825,88.095,52.2,30.10887275787654,26.846666666666668
1 -> 2,5.166321000000002,5.166320999999998,5.166321,5.166321000000001,5.166321000000002,1.538370149106851e-15,5.921189464667501e-16,71.56,71.56,71.56,71.56,71.56,0.0,0.0,35.210000000000015,35.20999999999999,35.21000000000001,35.21000000000001,35.210000000000015,1.2306961192854808e-14,4.736951571734001e-15,132.74,52.2,90.2825,88.095,52.2,30.10887275787654,26.846666666666668
1 -> 2,5.149677000000001,5.149676999999996,5.149676999999999,5.1496770000000005,5.149677000000001,2.3075552236602768e-15,8.881784197001252e-16,71.0,71.0,71.0,71.0,71.0,0.0,0.0,35.23000000000001,35.22999999999999,35.230000000000004,35.230000000000004,35.23000000000001,9.39959687352353e-15,2.3684757858670005e-15,245.43,166.02,208.7375,211.75,166.02,29.84319803154481,26.47
1 -> 2,5.149677000000001,5.149676999999996,5.149676999999999,5.1496770000000005,5.149677000000001,2.3075552236602768e-15,8.881784197001252e-16,71.0,71.0,71.0,71.0,71.0,0.0,0.0,35.23000000000001,35.22999999999999,35.230000000000004,35.230000000000004,35.23000000000001,9.39959687352353e-15,2.3684757858670005e-15,245.43,166.02,208.7375,211.75,166.02,29.84319803154481,26.47
1 -> 2,5.149677000000001,5.149676999999996,5.149676999999999,5.1496770000000005,5.149677000000001,2.3075552236602768e-15,8.881784197001252e-16,71.0,71.0,71.0,71.0,71.0,0.0,0.0,35.23000000000001,35.22999999999999,35.230000000000004,35.230000000000004,35.23000000000001,9.39959687352353e-15,2.3684757858670005e-15,262.43,257.41,260.4275,260.935,257.41,2.1133193677246105,0.6899999999999977
1 -> 2,5.149677000000001,5.149676999999996,5.149676999999999,5.1496770000000005,5.149677000000001,2.3075552236602768e-15,8.881784197001252e-16,71.0,71.0,71.0,71.0,71.0,0.0,0.0,35.23000000000001,35.22999999999999,35.230000000000004,35.230000000000004,35.23000000000001,9.39959687352353e-15,2.3684757858670005e-15,262.43,257.41,260.4275,260.935,257.41,2.1133193677246105,0.6899999999999977
1 -> 2,5.149677000000001,5.149676999999996,5.149676999999999,5.1496770000000005,5.149677000000001,2.3075552236602768e-15,8.881784197001252e-16,71.0,71.0,71.0,71.0,71.0,0.0,0.0,35.23000000000001,35.22999999999999,35.230000000000004,35.230000000000004,35.23000000000001,9.39959687352353e-15,2.3684757858670005e-15,254.52,223.39,240.6025,242.25,223.39,11.698455827586827,-10.376666666666674
1 -> 2,5.149677000000001,5.149676999999996,5.149676999999999,5.1496770000000005,5.149677000000001,2.3075552236602768e-15,8.881784197001252e-16,71.0,71.0,71.0,71.0,71.0,0.0,0.0,35.23000000000001,35.22999999999999,35.230000000000004,35.230000000000004,35.23000000000001,9.39959687352353e-15,2.3684757858670005e-15,254.52,223.39,240.6025,242.25,223.39,11.698455827586827,-10.376666666666674
1 -> 2,5.149677000000001,5.149676999999996,5.149676999999999,5.1496770000000005,5.149677000000001,2.3075552236602768e-15,8.881784197001252e-16,71.0,71.0,71.0,71.0,71.0,0.0,0.0,35.23000000000001,35.22999999999999,35.230000000000004,35.230000000000004,35.23000000000001,9.39959687352353e-15,2.3684757858670005e-15,206.45,151.58,178.665,178.315,151.58,20.503839274633414,-18.289999999999992
1 -> 2,5.149677000000001,5.149676999999996,5.149676999999999,5.1496770000000005,5.149677000000001,2.3075552236602768e-15,8.881784197001252e-16,71.0,71.0,71.0,71.0,71.0,0.0,0.0,35.23000000000001,35.22999999999999,35.230000000000004,35.230000000000004,35.23000000000001,9.39959687352353e-15,2.3684757858670005e-15,206.45,151.58,178.665,178.315,151.58,20.503839274633414,-18.289999999999992
1 -> 2,5.148397000000002,5.148396999999999,5.148397000000002,5.148397000000002,5.148397000000002,1.3322676295501878e-15,8.881784197001252e-16,71.0,71.0,71.0,71.0,71.0,0.0,0.0,35.23000000000001,35.22999999999999,35.230000000000004,35.230000000000004,35.23000000000001,9.39959687352353e-15,2.3684757858670005e-15,136.01,91.98,114.1675,114.34,91.98,16.383652485022985,-14.676666666666662
1 -> 2,5.148397000000002,5.148396999999999,5.148397000000002,5.148397000000002,5.148397000000002,1.3322676295501878e-15,8.881784197001252e-16,71.0,71.0,71.0,71.0,71.0,0.0,0.0,35.23000000000001,35.22999999999999,35.230000000000004,35.230000000000004,35.23000000000001,9.39959687352353e-15,2.3684757858670005e-15,136.01,91.98,114.1675,114.34,91.98,16.383652485022985,-14.676666666666662
1 -> 2,5.148397000000002,5.148396999999999,5.148397000000002,5.148397000000002,5.148397000000002,1.3322676295501878e-15,8.881784197001252e-16,71.0,71.0,71.0,71.0,71.0,0.0,0.0,35.23000000000001,35.22999999999999,35.230000000000004,35.230000000000004,35.23000000000001,9.39959687352353e-15,2.3684757858670005e-15,76.29,33.69,54.394999999999996,53.8,33.69,15.88946427668347,-14.200000000000003
1 -> 2,5.148397000000002,5.148396999999999,5.148397000000002,5.148397000000002,5.148397000000002,1.3322676295501878e-15,8.881784197001252e-16,71.0,71.0,71.0,71.0,71.0,0.0,0.0,35.23000000000001,35.22999999999999,35.230000000000004,35.230000000000004,35.23000000000001,9.39959687352353e-15,2.3684757858670005e-15,76.29,33.69,54.394999999999996,53.8,33.69,15.88946427668347,-14.200000000000003
1 -> 2,5.148397000000002,5.148396999999999,5.148397000000002,5.148397000000002,5.148397000000002,1.3322676295501878e-15,8.881784197001252e-16,71.0,71.0,71.0,71.0,71.0,0.0,0.0,35.23000000000001,35.22999999999999,35.230000000000004,35.230000000000004,35.23000000000001,9.39959687352353e-15,2.3684757858670005e-15,20.97,-25.12,-1.347500000000001,-0.6200000000000001,-25.12,17.21874759528114,-15.363333333333335
1 -> 2,5.148397000000002,5.148396999999999,5.148397000000002,5.148397000000002,5.148397000000002,1.3322676295501878e-15,8.881784197001252e-16,71.0,71.0,71.0,71.0,71.0,0.0,0.0,35.23000000000001,35.22999999999999,35.230000000000004,35.230000000000004,35.23000000000001,9.39959687352353e-15,2.3684757858670005e-15,20.97,-25.12,-1.347500000000001,-0.6200000000000001,-25.12,17.21874759528114,-15.363333333333335
1 -> 2,5.148397000000002,5.148396999999999,5.148397000000002,5.148397000000002,5.148397000000002,1.3322676295501878e-15,8.881784197001252e-16,71.0,71.0,71.0,71.0,71.0,0.0,0.0,35.23000000000001,35.22999999999999,35.230000000000004,35.230000000000004,35.23000000000001,9.39959687352353e-15,2.3684757858670005e-15,-40.69,-58.25,-52.3625,-55.254999999999995,-58.25,7.150543248593075,-5.853333333333334
1 -> 2,5.148397000000002,5.148396999999999,5.148397000000002,5.148397000000002,5.148397000000002,1.3322676295501878e-15,8.881784197001252e-16,71.0,71.0,71.0,71.0,71.0,0.0,0.0,35.23000000000001,35.22999999999999,35.230000000000004,35.230000000000004,35.23000000000001,9.39959687352353e-15,2.3684757858670005e-15,-40.69,-58.25,-52.3625,-55.254999999999995,-58.25,7.150543248593075,-5.853333333333334
1 -> 2,5.1394350000000015,5.139434999999998,5.139435000000001,5.139435000000001,5.1394350000000015,1.538370149106851e-15,-5.921189464667501e-16,71.0,71.0,71.0,71.0,71.0,0.0,0.0,35.23000000000001,35.22999999999999,35.230000000000004,35.230000000000004,35.23000000000001,9.39959687352353e-15,2.3684757858670005e-15,-52.16,-59.99,-55.1,-54.125,-59.99,2.9995082930373784,-1.663333333333334
1 -> 2,5.1394350000000015,5.139434999999998,5.139435000000001,5.139435000000001,5.1394350000000015,1.538370149106851e-15,-5.921189464667501e-16,71.0,71.0,71.0,71.0,71.0,0.0,0.0,35.23000000000001,35.22999999999999,35.230000000000004,35.230000000000004,35.23000000000001,9.39959687352353e-15,2.3684757858670005e-15,-52.16,-59.99,-55.1,-54.125,-59.99,2.9995082930373784,-1.663333333333334
1 -> 2,5.1394350000000015,5.139434999999998,5.139435000000001,5.139435000000001,5.1394350000000015,1.538370149106851e-15,-5.921189464667501e-16,71.0,71.0,71.0,71.0,71.0,0.0,0.0,35.23000000000001,35.22999999999999,35.230000000000004,35.230000000000004,35.23000000000001,9.39959687352353e-15,2.3684757858670005e-15,-71.72,-107.42,-90.865,-92.16,-107.42,13.478157329546201,-11.9
1 -> 2,5.1394350000000015,5.139434999999998,5.139435000000001,5.139435000000001,5.1394350000000015,1.538370149106851e-15,-5.921189464667501e-16,71.0,71.0,71.0,71.0,71.0,0.0,0.0,35.23000000000001,35.22999999999999,35.230000000000004,35.230000000000004,35.23000000000001,9.39959687352353e-15,2.3684757858670005e-15,-71.72,-107.42,-90.865,-92.16,-107.42,13.478157329546201,-11.9
1 -> 2,5.1394350000000015,5.139434999999998,5.139435000000001,5.139435000000001,5.1394350000000015,1.538370149106851e-15,-5.921189464667501e-16,71.0,71.0,71.0,71.0,71.0,0.0,0.0,35.23000000000001,35.22999999999999,35.230000000000004,35.230000000000004,35.23000000000001,9.39959687352353e-15,2.3684757858670005e-15,-93.84,-110.77,-103.98249999999999,-105.66,-110.77,6.589094683642053,5.643333333333331
1 -> 2,5.1394350000000015,5.139434999999998,5.139435000000001,5.139435000000001,5.1394350000000015,1.538370149106851e-15,-5.921189464667501e-16,71.0,71.0,71.0,71.0,71.0,0.0,0.0,35.23000000000001,35.22999999999999,35.230000000000004,35.230000000000004,35.23000000000001,9.39959687352353e-15,2.3684757858670005e-15,-93.84,-110.77,-103.98249999999999,-105.66,-110.77,6.589094683642053,5.643333333333331
1 -> 2,5.1394350000000015,5.139434999999998,5.139435000000001,5.139435000000001,5.1394350000000015,1.538370149106851e-15,-5.921189464667501e-16,71.0,71.0,71.0,71.0,71.0,0.0,0.0,35.23000000000001,35.22999999999999,35.230000000000004,35.230000000000004,35.23000000000001,9.39959687352353e-15,2.3684757858670005e-15,-60.34,-84.11,-71.38,-70.535,-84.11,8.931189730377469,7.923333333333332
1 -> 2,5.1394350000000015,5.139434999999998,5.139435000000001,5.139435000000001,5.1394350000000015,1.538370149106851e-15,-5.921189464667501e-16,71.0,71.0,71.0,71.0,71.0,0.0,0.0,35.23000000000001,35.22999999999999,35.230000000000004,35.230000000000004,35.23000000000001,9.39959687352353e-15,2.3684757858670005e-15,-60.34,-84.11,-71.38,-70.535,-84.11,8.931189730377469,7.923333333333332
1 -> 2,5.138155000000002,5.138155000000001,5.138155000000001,5.138155000000001,5.138155000000001,6.280369834735101e-16,0.0,71.0,71.0,71.0,71.0,71.0,0.0,0.0,35.23000000000001,35.22999999999999,35.230000000000004,35.230000000000004,35.23000000000001,9.39959687352353e-15,2.3684757858670005e-15,-56.53,-62.37,-58.6275,-57.805,-62.37,2.299634481825317,-1.7999999999999996
1 -> 2,5.138155000000002,5.138155000000001,5.138155000000001,5.138155000000001,5.138155000000001,6.280369834735101e-16,0.0,71.0,71.0,71.0,71.0,71.0,0.0,0.0,35.23000000000001,35.22999999999999,35.230000000000004,35.230000000000004,35.23000000000001,9.39959687352353e-15,2.3684757858670005e-15,-56.53,-62.37,-58.6275,-57.805,-62.37,2.299634481825317,-1.7999999999999996
1 -> 2,5.138155000000002,5.138155000000001,5.138155000000001,5.138155000000001,5.138155000000001,6.280369834735101e-16,0.0,71.0,71.0,71.0,71.0,71.0,0.0,0.0,35.23000000000001,35.22999999999999,35.230000000000004,35.230000000000004,35.23000000000001,9.39959687352353e-15,2.3684757858670005e-15,-66.45,-71.04,-69.37,-69.995,-71.04,1.7580529002279766,-1.3033333333333321
1 -> 2,5.138155000000002,5.138155000000001,5.138155000000001,5.138155000000001,5.138155000000001,6.280369834735101e-16,0.0,71.0,71.0,71.0,71.0,71.0,0.0,0.0,35.23000000000001,35.22999999999999,35.230000000000004,35.230000000000004,35.23000000000001,9.39959687352353e-15,2.3684757858670005e-15,-66.45,-71.04,-69.37,-69.995,-71.04,1.7580529002279766,-1.3033333333333321
