PHASE,EDA_MAX,EDA_MIN,EDA_MEAN,EDA_MEDIAN,EDA_MODE,EDA_SD,EDA_DIFF,HR_MAX,HR_MIN,HR_MEAN,HR_MEDIAN,HR_MODE,HR_SD,HR_DIFF,SKT_MAX,SKT_MIN,SKT_MEAN,SKT_MEDIAN,SKT_MODE,SKT_SD,SKT_DIFF,BVP_MAX,BVP_MIN,BVP_MEAN,BVP_MEDIAN,BVP_MODE,BVP_SD,BVP_DIFF
1 -> 2,0.19849900000000012,0.19849899999999995,0.19849900000000004,0.19849900000000004,0.19849900000000012,7.72682523912663e-17,9.25185853854297e-18,64.0,64.0,64.0,64.0,64.0,0.0,0.0,33.05000000000001,33.05,33.050000000000004,33.05000000000001,33.05000000000001,6.153480596427404e-15,2.3684757858670005e-15,-22.77,-40.22,-32.105000000000004,-32.715,-40.22,6.537738523373354,5.816666666666666
1 -> 2,0.19849900000000012,0.19849899999999995,0.19849900000000004,0.19849900000000004,0.19849900000000012,7.72682523912663e-17,9.25185853854297e-18,64.0,64.0,64.0,64.0,64.0,0.0,0.0,33.05000000000001,33.05,33.050000000000004,33.05000000000001,33.05000000000001,6.153480596427404e-15,2.3684757858670005e-15,-22.77,-40.22,-32.105000000000004,-32.715,-40.22,6.537738523373354,5.816666666666666
1 -> 2,0.19849900000000012,0.19849899999999995,0.19849900000000004,0.19849900000000004,0.19849900000000012,7.72682523912663e-17,9.25185853854297e-18,64.0,64.0,64.0,64.0,64.0,0.0,0.0,33.05000000000001,33.05,33.050000000000004,33.05000000000001,33.05000000000001,6.153480596427404e-15,2.3684757858670005e-15,-0.65,-15.32,-6.9475,-5.91,-15.32,5.592849787898832,4.89
1 -> 2,0.19849900000000012,0.19849899999999995,0.19849900000000004,0.19849900000000004,0.19849900000000012,7.72682523912663e-17,9.25185853854297e-18,64.0,64.0,64.0,64.0,64.0,0.0,0.0,33.05000000000001,33.05,33.050000000000004,33.05000000000001,33.05000000000001,6.153480596427404e-15,2.3684757858670005e-15,-0.65,-15.32,-6.9475,-5.91,-15.32,5.592849787898832,4.89
1 -> 2,0.19849900000000012,0.19849899999999995,0.19849900000000004,0.19849900000000004,0.19849900000000012,7.72682523912663e-17,9.25185853854297e-18,64.0,64.0,64.0,64.0,64.0,0.0,0.0,33.05000000000001,33.05,33.050000000000004,33.05000000000001,33.05000000000001,6.153480596427404e-15,2.3684757858670005e-15,-0.51,-5.64,-3.2199999999999998,-3.365,-5.64,1.9858121764154837,-1.71
1 -> 2,0.19849900000000012,0.19849899999999995,0.19849900000000004,0.19849900000000004,0.19849900000000012,7.72682523912663e-17,9.25185853854297e-18,64.0,64.0,64.0,64.0,64.0,0.0,0.0,33.05000000000001,33.05,33.050000000000004,33.05000000000001,33.05000000000001,6.153480596427404e-15,2.3684757858670005e-15,-0.51,-5.64,-3.2199999999999998,-3.365,-5.64,1.9858121764154837,-1.71
1 -> 2,0.19849900000000012,0.19849899999999995,0.19849900000000004,0.19849900000000004,0.19849900000000012,7.72682523912663e-17,9.25185853854297e-18,64.0,64.0,64.0,64.0,64.0,0.0,0.0,33.05000000000001,33.05,33.050000000000004,33.05000000000001,33.05000000000001,6.153480596427404e-15,2.3684757858670005e-15,19.2,-4.25,5.995,4.515000000000001,-4.25,8.892065283161163,7.816666666666666
1 -> 2,0.19849900000000012,0.19849899999999995,0.19849900000000004,0.19849900000000004,0.19849900000000012,7.72682523912663e-17,9.25185853854297e-18,64.0,64.0,64.0,64.0,64.0,0.0,0.0,33.05000000000001,33.05,33.050000000000004,33.05000000000001,33.05000000000001,6.153480596427404e-15,2.3684757858670005e-15,19.2,-4.25,5.995,4.515000000000001,-4.25,8.892065283161163,7.816666666666666
1 -> 2,0.2010600000000001,0.2010599999999999,0.20106000000000002,0.20106000000000002,0.2010600000000001,9.100274040305112e-17,-9.25185853854297e-18,64.0,64.0,64.0,64.0,64.0,0.0,0.0,33.05000000000001,33.05,33.050000000000004,33.05000000000001,33.05000000000001,6.153480596427404e-15,2.3684757858670005e-15,65.62,31.28,48.955,49.46,31.28,12.831754556567859,11.446666666666667
1 -> 2,0.2010600000000001,0.2010599999999999,0.20106000000000002,0.20106000000000002,0.2010600000000001,9.100274040305112e-17,-9.25185853854297e-18,64.0,64.0,64.0,64.0,64.0,0.0,0.0,33.05000000000001,33.05,33.050000000000004,33.05000000000001,33.05000000000001,6.153480596427404e-15,2.3684757858670005e-15,65.62,31.28,48.955,49.46,31.28,12.831754556567859,11.446666666666667
1 -> 2,0.2010600000000001,0.2010599999999999,0.20106000000000002,0.20106000000000002,0.2010600000000001,9.100274040305112e-17,-9.25185853854297e-18,64.0,64.0,64.0,64.0,64.0,0.0,0.0,33.05000000000001,33.05,33.050000000000004,33.05000000000001,33.05000000000001,6.153480596427404e-15,2.3684757858670005e-15,85.45,74.16,81.1225,82.44,74.16,4.417241078999426,3.7633333333333354
1 -> 2,0.2010600000000001,0.2010599999999999,0.20106000000000002,0.20106000000000002,0.2010600000000001,9.100274040305112e-17,-9.25185853854297e-18,64.0,64.0,64.0,64.0,64.0,0.0,0.0,33.05000000000001,33.05,33.050000000000004,33.05000000000001,33.05000000000001,6.153480596427404e-15,2.3684757858670005e-15,85.45,74.16,81.1225,82.44,74.16,4.417241078999426,3.7633333333333354
1 -> 2,0.2010600000000001,0.2010599999999999,0.20106000000000002,0.20106000000000002,0.2010600000000001,9.100274040305112e-17,-9.25185853854297e-18,64.0,64.0,64.0,64.0,64.0,0.0,0.0,33.05000000000001,33.05,33.050000000000004,33.05000000000001,33.05000000000001,6.153480596427404e-15,2.3684757858670005e-15,83.77,66.51,75.91499999999999,76.69,66.51,6.502251533122966,-5.75333333333333
1 -> 2,0.2010600000000001,0.2010599999999999,0.20106000000000002,0.20106000000000002,0.2010600000000001,9.100274040305112e-17,-9.25185853854297e-18,64.0,64.0,64.0,64.0,64.0,0.0,0.0,33.05000000000001,33.05,33.050000000000004,33.05000000000001,33.05000000000001,6.153480596427404e-15,2.3684757858670005e-15,83.77,66.51,75.91499999999999,76.69,66.51,6.502251533122966,-5.75333333333333
1 -> 2,0.2010600000000001,0.2010599999999999,0.20106000000000002,0.20106000000000002,0.2010600000000001,9.100274040305112e-17,-9.25185853854297e-18,64.0,64.0,64.0,64.0,64.0,0.0,0.0,33.05000000000001,33.05,33.050000000000004,33.05000000000001,33.05000000000001,6.153480596427404e-15,2.3684757858670005e-15,58.57,32.65,45.7375,45.864999999999995,32.65,9.661773582008637,-8.64
1 -> 2,0.2010600000000001,0.2010599999999999,0.20106000000000002,0.20106000000000002,0.2010600000000001,9.100274040305112e-17,-9.25185853854297e-18,64.0,64.0,64.0,64.0,64.0,0.0,0.0,33.05000000000001,33.05,33.050000000000004,33.05000000000001,33.05000000000001,6.153480596427404e-15,2.3684757858670005e-15,58.57,32.65,45.7375,45.864999999999995,32.65,9.661773582008637,-8.64
1 -> 2,0.2023410000000001,0.202341,0.20234100000000008,0.2023410000000001,0.2023410000000001,4.8074067159589095e-17,3.700743415417188e-17,64.0,64.0,64.0,64.0,64.0,0.0,0.0,33.05000000000001,33.05,33.050000000000004,33.05000000000001,33.05000000000001,6.153480596427404e-15,2.3684757858670005e-15,23.46,-10.04,7.442500000000001,8.175,-10.04,12.482212093615459,-11.166666666666666
1 -> 2,0.2023410000000001,0.202341,0.20234100000000008,0.2023410000000001,0.2023410000000001,4.8074067159589095e-17,3.700743415417188e-17,64.0,64.0,64.0,64.0,64.0,0.0,0.0,33.05000000000001,33.05,33.050000000000004,33.05000000000001,33.05000000000001,6.153480596427404e-15,2.3684757858670005e-15,23.46,-10.04,7.442500000000001,8.175,-10.04,12.482212093615459,-11.166666666666666
1 -> 2,0.2023410000000001,0.202341,0.20234100000000008,0.2023410000000001,0.2023410000000001,4.8074067159589095e-17,3.700743415417188e-17,64.0,64.0,64.0,64.0,64.0,0.0,0.0,33.05000000000001,33.05,33.050000000000004,33.05000000000001,33.05000000000001,6.153480596427404e-15,2.3684757858670005e-15,-24.92,-74.2,-49.852500000000006,-50.144999999999996,-74.2,18.448034278751763,-16.426666666666666
1 -> 2,0.2023410000000001,0.202341,0.20234100000000008,0.2023410000000001,0.2023410000000001,4.8074067159589095e-17,3.700743415417188e-17,64.0,64.0,64.0,64.0,64.0,0.0,0.0,33.05000000000001,33.05,33.050000000000004,33.05000000000001,33.05000000000001,6.153480596427404e-15,2.3684757858670005e-15,-24.92,-74.2,-49.852500000000006,-50.144999999999996,-74.2,18.448034278751763,-16.426666666666666
1 -> 2,0.2023410000000001,0.202341,0.20234100000000008,0.2023410000000001,0.2023410000000001,4.8074067159589095e-17,3.700743415417188e-17,64.0,64.0,64.0,64.0,64.0,0.0,0.0,33.05000000000001,33.05,33.050000000000004,33.05000000000001,33.05000000000001,6.153480596427404e-15,2.3684757858670005e-15,-85.21,-91.66,-88.475,-88.515,-91.66,2.999487456216477,0.18333333333333712
1 -> 2,0.2023410000000001,0.202341,0.20234100000000008,0.2023410000000001,0.2023410000000001,4.8074067159589095e-17,3.700743415417188e-17,64.0,64.0,64.0,64.0,64.0,0.0,0.0,33.05000000000001,33.05,33.050000000000004,33.05000000000001,33.05000000000001,6.153480596427404e-15,2.3684757858670005e-15,-85.21,-91.66,-88.475,-88.515,-91.66,2.999487456216477,0.18333333333333712
1 -> 2,0.2023410000000001,0.202341,0.20234100000000008,0.2023410000000001,0.2023410000000001,4.8074067159589095e-17,3.700743415417188e-17,64.0,64.0,64.0,64.0,64.0,0.0,0.0,33.05000000000001,33.05,33.050000000000004,33.05000000000001,33.05000000000001,6.153480596427404e-15,2.3684757858670005e-15,-35.99,-74.93,-55.517500000000005,-55.575,-74.93,14.558683620094232,12.980000000000002
1 -> 2,0.2023410000000001,0.202341,0.20234100000000008,0.2023410000000001,0.2023410000000001,4.8074067159589095e-17,3.700743415417188e-17,64.0,64.0,64.0,64.0,64.0,0.0,0.0,33.05000000000001,33.05,33.050000000000004,33.05000000000001,33.05000000000001,6.153480596427404e-15,2.3684757858670005e-15,-35.99,-74.93,-55.517500000000005,-55.575,-74.93,14.558683620094232,12.980000000000002
1 -> 2,0.2010600000000001,0.2010599999999999,0.20106000000000002,0.20106000000000002,0.2010600000000001,9.100274040305112e-17,-9.25185853854297e-18,64.0,64.0,64.0,64.0,64.0,0.0,0.0,33.05000000000001,33.05,33.050000000000004,33.05000000000001,33.05000000000001,6.153480596427404e-15,2.3684757858670005e-15,-2.13,-24.5,-12.275,-11.235,-24.5,8.396262561401947,7.456666666666666
1 -> 2,0.2010600000000001,0.2010599999999999,0.20106000000000002,0.20106000000000002,0.2010600000000001,9.100274040305112e-17,-9.25185853854297e-18,64.0,64.0,64.0,64.0,64.0,0.0,0.0,33.05000000000001,33.05,33.050000000000004,33.05000000000001,33.05000000000001,6.153480596427404e-15,2.3684757858670005e-15,-2.13,-24.5,-12.275,-11.235,-24.5,8.396262561401947,7.456666666666666
1 -> 2,0.2010600000000001,0.2010599999999999,0.20106000000000002,0.20106000000000002,0.2010600000000001,9.100274040305112e-17,-9.25185853854297e-18,64.0,64.0,64.0,64.0,64.0,0.0,0.0,33.05000000000001,33.05,33.050000000000004,33.05000000000001,33.05000000000001,6.153480596427404e-15,2.3684757858670005e-15,10.35,1.73,6.0600000000000005,6.08,1.73,3.197952469940727,2.8733333333333335
1 -> 2,0.2010600000000001,0.2010599999999999,0.20106000000000002,0.20106000000000002,0.2010600000000001,9.100274040305112e-17,-9.25185853854297e-18,64.0,64.0,64.0,64.0,64.0,0.0,0.0,33.05000000000001,33.05,33.050000000000004,33.05000000000001,33.05000000000001,6.153480596427404e-15,2.3684757858670005e-15,10.35,1.73,6.0600000000000005,6.08,1.73,3.197952469940727,2.8733333333333335
1 -> 2,0.2010600000000001,0.2010599999999999,0.20106000000000002,0.20106000000000002,0.2010600000000001,9.100274040305112e-17,-9.25185853854297e-18,64.0,64.0,64.0,64.0,64.0,0.0,0.0,33.05000000000001,33.05,33.050000000000004,33.05000000000001,33.05000000000001,6.153480596427404e-15,2.3684757858670005e-15,20.7,13.4,17.325,17.6,13.4,2.741919947773822,2.433333333333333
1 -> 2,0.2010600000000001,0.2010599999999999,0.20106000000000002,0.20106000000000002,0.2010600000000001,9.100274040305112e-17,-9.25185853854297e-18,64.0,64.0,64.0,64.0,64.0,0.0,0.0,33.05000000000001,33.05,33.050000000000004,33.05000000000001,33.05000000000001,6.153480596427404e-15,2.3684757858670005e-15,20.7,13.4,17.325,17.6,13.4,2.741919947773822,2.433333333333333
1 -> 2,0.2010600000000001,0.2010599999999999,0.20106000000000002,0.20106000000000002,0.2010600000000001,9.100274040305112e-17,-9.25185853854297e-18,64.0,64.0,64.0,64.0,64.0,0.0,0.0,33.05000000000001,33.05,33.050000000000004,33.05000000000001,33.05000000000001,6.153480596427404e-15,2.3684757858670005e-15,25.88,21.97,23.7425,23.560000000000002,21.97,1.4534506355566397,1.3033333333333335
1 -> 2,0.2010600000000001,0.2010599999999999,0.20106000000000002,0.20106000000000002,0.2010600000000001,9.100274040305112e-17,-9.25185853854297e-18,64.0,64.0,64.0,64.0,64.0,0.0,0.0,33.05000000000001,33.05,33.050000000000004,33.05000000000001,33.05000000000001,6.153480596427404e-15,2.3684757858670005e-15,25.88,21.97,23.7425,23.560000000000002,21.97,1.4534506355566397,1.3033333333333335
1 -> 2,0.2010600000000001,0.2010599999999999,0.20106000000000002,0.20106000000000002,0.2010600000000001,9.100274040305112e-17,-9.25185853854297e-18,61.0,61.0,61.0,61.0,61.0,0.0,0.0,33.030000000000015,33.02999999999999,33.03000000000001,33.030000000000015,33.030000000000015,1.1783018260144473e-14,7.105427357601002e-15,41.74,28.5,34.7475,34.375,28.5,4.96145832895934,4.413333333333334
1 -> 2,0.2010600000000001,0.2010599999999999,0.20106000000000002,0.20106000000000002,0.2010600000000001,9.100274040305112e-17,-9.25185853854297e-18,61.0,61.0,61.0,61.0,61.0,0.0,0.0,33.030000000000015,33.02999999999999,33.03000000000001,33.030000000000015,33.030000000000015,1.1783018260144473e-14,7.105427357601002e-15,41.74,28.5,34.7475,34.375,28.5,4.96145832895934,4.413333333333334
1 -> 2,0.2010600000000001,0.2010599999999999,0.20106000000000002,0.20106000000000002,0.2010600000000001,9.100274040305112e-17,-9.25185853854297e-18,61.0,61.0,61.0,61.0,61.0,0.0,0.0,33.030000000000015,33.02999999999999,33.03000000000001,33.030000000000015,33.030000000000015,1.1783018260144473e-14,7.105427357601002e-15,57.59,46.91,52.8075,53.364999999999995,46.91,4.0268745634797245,3.5600000000000023
1 -> 2,0.2010600000000001,0.2010599999999999,0.20106000000000002,0.20106000000000002,0.2010600000000001,9.100274040305112e-17,-9.25185853854297e-18,61.0,61.0,61.0,61.0,61.0,0.0,0.0,33.030000000000015,33.02999999999999,33.03000000000001,33.030000000000015,33.030000000000015,1.1783018260144473e-14,7.105427357601002e-15,57.59,46.91,52.8075,53.364999999999995,46.91,4.0268745634797245,3.5600000000000023
1 -> 2,0.2010600000000001,0.2010599999999999,0.20106000000000002,0.20106000000000002,0.2010600000000001,9.100274040305112e-17,-9.25185853854297e-18,61.0,61.0,61.0,61.0,61.0,0.0,0.0,33.030000000000015,33.02999999999999,33.03000000000001,33.030000000000015,33.030000000000015,1.1783018260144473e-14,7.105427357601002e-15,59.33,58.87,59.135,59.17,58.87,0.19006577808748207,0.05666666666666723
1 -> 2,0.2010600000000001,0.2010599999999999,0.20106000000000002,0.20106000000000002,0.2010600000000001,9.100274040305112e-17,-9.25185853854297e-18,61.0,61.0,61.0,61.0,61.0,0.0,0.0,33.030000000000015,33.02999999999999,33.03000000000001,33.030000000000015,33.030000000000015,1.1783018260144473e-14,7.105427357601002e-15,59.33,58.87,59.135,59.17,58.87,0.19006577808748207,0.05666666666666723
1 -> 2,0.2010600000000001,0.2010599999999999,0.20106000000000002,0.20106000000000002,0.2010600000000001,9.100274040305112e-17,-9.25185853854297e-18,61.0,61.0,61.0,61.0,61.0,0.0,0.0,33.030000000000015,33.02999999999999,33.03000000000001,33.030000000000015,33.030000000000015,1.1783018260144473e-14,7.105427357601002e-15,58.57,55.26,57.114999999999995,57.315,55.26,1.2460437392001946,-1.1033333333333342
1 -> 2,0.2010600000000001,0.2010599999999999,0.20106000000000002,0.20106000000000002,0.2010600000000001,9.100274040305112e-17,-9.25185853854297e-18,61.0,61.0,61.0,61.0,61.0,0.0,0.0,33.030000000000015,33.02999999999999,33.03000000000001,33.030000000000015,33.030000000000015,1.1783018260144473e-14,7.105427357601002e-15,58.57,55.26,57.114999999999995,57.315,55.26,1.2460437392001946,-1.1033333333333342
1 -> 2,0.2036210000000001,0.20362099999999997,0.20362100000000002,0.20362100000000005,0.2036210000000001,6.655553224256149e-17,-9.25185853854297e-18,61.0,61.0,61.0,61.0,61.0,0.0,0.0,33.030000000000015,33.02999999999999,33.03000000000001,33.030000000000015,33.030000000000015,1.1783018260144473e-14,7.105427357601002e-15,53.21,43.02,48.45,48.785,43.02,3.816064726914363,-3.396666666666666
1 -> 2,0.2036210000000001,0.20362099999999997,0.20362100000000002,0.20362100000000005,0.2036210000000001,6.655553224256149e-17,-9.25185853854297e-18,61.0,61.0,61.0,61.0,61.0,0.0,0.0,33.030000000000015,33.02999999999999,33.03000000000001,33.030000000000015,33.030000000000015,1.1783018260144473e-14,7.105427357601002e-15,53.21,43.02,48.45,48.785,43.02,3.816064726914363,-3.396666666666666
1 -> 2,0.2036210000000001,0.20362099999999997,0.20362100000000002,0.20362100000000005,0.2036210000000001,6.655553224256149e-17,-9.25185853854297e-18,61.0,61.0,61.0,61.0,61.0,0.0,0.0,33.030000000000015,33.02999999999999,33.03000000000001,33.030000000000015,33.030000000000015,1.1783018260144473e-14,7.105427357601002e-15,38.56,26.18,32.190000000000005,32.010000000000005,26.18,4.62100097381509,-4.126666666666668
1 -> 2,0.2036210000000001,0.20362099999999997,0.20362100000000002,0.20362100000000005,0.2036210000000001,6.655553224256149e-17,-9.25185853854297e-18,61.0,61.0,61.0,61.0,61.0,0.0,0.0,33.030000000000015,33.02999999999999,33.03000000000001,33.030000000000015,33.030000000000015,1.1783018260144473e-14,7.105427357601002e-15,38.56,26.18,32.190000000000005,32.010000000000005,26.18,4.62100097381509,-4.126666666666668
1 -> 2,0.2036210000000001,0.20362099999999997,0.20362100000000002,0.20362100000000005,0.2036210000000001,6.655553224256149e-17,-9.25185853854297e-18,61.0,61.0,61.0,61.0,61.0,0.0,0.0,33.030000000000015,33.02999999999999,33.03000000000001,33.030000000000015,33.030000000000015,1.1783018260144473e-14,7.105427357601002e-15,22.58,7.96,15.777499999999998,16.285,7.96,5.458563799205795,-4.873333333333332
1 -> 2,0.2036210000000001,0.20362099999999997,0.20362100000000002,0.20362100000000005,0.2036210000000001,6.655553224256149e-17,-9.25185853854297e-18,61.0,61.0,61.0,61.0,61.0,0.0,0.0,33.030000000000015,33.02999999999999,33.03000000000001,33.030000000000015,33.030000000000015,1.1783018260144473e-14,7.105427357601002e-15,22.58,7.96,15.777499999999998,16.285,7.96,5.458563799205795,-4.873333333333332
1 -> 2,0.2036210000000001,0.20362099999999997,0.20362100000000002,0.20362100000000005,0.2036210000000001,6.655553224256149e-17,-9.25185853854297e-18,61.0,61.0,61.0,61.0,61.0,0.0,0.0,33.030000000000015,33.02999999999999,33.03000000000001,33.030000000000015,33.030000000000015,1.1783018260144473e-14,7.105427357601002e-15,0.78,-25.24,-12.035,-11.84,-25.24,9.71556097196657,-8.673333333333334
1 -> 2,0.2036210000000001,0.20362099999999997,0.20362100000000002,0.20362100000000005,0.2036210000000001,6.655553224256149e-17,-9.25185853854297e-18,61.0,61.0,61.0,61.0,61.0,0.0,0.0,33.030000000000015,33.02999999999999,33.03000000000001,33.030000000000015,33.030000000000015,1.1783018260144473e-14,7.105427357601002e-15,0.78,-25.24,-12.035,-11.84,-25.24,9.71556097196657,-8.673333333333334
1 -> 2,0.2023410000000001,0.202341,0.20234100000000008,0.2023410000000001,0.2023410000000001,4.8074067159589095e-17,3.700743415417188e-17,61.0,61.0,61.0,61.0,61.0,0.0,0.0,33.030000000000015,33.02999999999999,33.03000000000001,33.030000000000015,33.030000000000015,1.1783018260144473e-14,7.105427357601002e-15,-33.99,-55.42,-45.227500000000006,-45.75,-55.42,8.014413188125504,-7.1433333333333335
1 -> 2,0.2023410000000001,0.202341,0.20234100000000008,0.2023410000000001,0.2023410000000001,4.8074067159589095e-17,3.700743415417188e-17,61.0,61.0,61.0,61.0,61.0,0.0,0.0,33.030000000000015,33.02999999999999,33.03000000000001,33.030000000000015,33.030000000000015,1.1783018260144473e-14,7.105427357601002e-15,-33.99,-55.42,-45.227500000000006,-45.75,-55.42,8.014413188125504,-7.1433333333333335
1 -> 2,0.2023410000000001,0.202341,0.20234100000000008,0.2023410000000001,0.2023410000000001,4.8074067159589095e-17,3.700743415417188e-17,61.0,61.0,61.0,61.0,61.0,0.0,0.0,33.030000000000015,33.02999999999999,33.03000000000001,33.030000000000015,33.030000000000015,1.1783018260144473e-14,7.105427357601002e-15,-60.04,-64.13,-62.6425,-63.2,-64.13,1.5568778853847196,-1.1233333333333324
1 -> 2,0.2023410000000001,0.202341,0.20234100000000008,0.2023410000000001,0.2023410000000001,4.8074067159589095e-17,3.700743415417188e-17,61.0,61.0,61.0,61.0,61.0,0.0,0.0,33.030000000000015,33.02999999999999,33.03000000000001,33.030000000000015,33.030000000000015,1.1783018260144473e-14,7.105427357601002e-15,-60.04,-64.13,-62.6425,-63.2,-64.13,1.5568778853847196,-1.1233333333333324
1 -> 2,0.2023410000000001,0.202341,0.20234100000000008,0.2023410000000001,0.2023410000000001,4.8074067159589095e-17,3.700743415417188e-17,61.0,61.0,61.0,61.0,61.0,0.0,0.0,33.030000000000015,33.02999999999999,33.03000000000001,33.030000000000015,33.030000000000015,1.1783018260144473e-14,7.105427357601002e-15,-48.1,-61.02,-54.815,-55.07,-61.02,4.843766612874737,4.3066666666666675
1 -> 2,0.2023410000000001,0.202341,0.20234100000000008,0.2023410000000001,0.2023410000000001,4.8074067159589095e-17,3.700743415417188e-17,61.0,61.0,61.0,61.0,61.0,0.0,0.0,33.030000000000015,33.02999999999999,33.03000000000001,33.030000000000015,33.030000000000015,1.1783018260144473e-14,7.105427357601002e-15,-48.1,-61.02,-54.815,-55.07,-61.02,4.843766612874737,4.3066666666666675
1 -> 2,0.2023410000000001,0.202341,0.20234100000000008,0.2023410000000001,0.2023410000000001,4.8074067159589095e-17,3.700743415417188e-17,61.0,61.0,61.0,61.0,61.0,0.0,0.0,33.030000000000015,33.02999999999999,33.03000000000001,33.030000000000015,33.030000000000015,1.1783018260144473e-14,7.105427357601002e-15,-33.57,-43.64,-38.3225,-38.04,-43.64,3.761631128912031,3.356666666666667
1 -> 2,0.2023410000000001,0.202341,0.20234100000000008,0.2023410000000001,0.2023410000000001,4.8074067159589095e-17,3.700743415417188e-17,61.0,61.0,61.0,61.0,61.0,0.0,0.0,33.030000000000015,33.02999999999999,33.03000000000001,33.030000000000015,33.030000000000015,1.1783018260144473e-14,7.105427357601002e-15,-33.57,-43.64,-38.3225,-38.04,-43.64,3.761631128912031,3.356666666666667
1 -> 2,0.2023410000000001,0.202341,0.20234100000000008,0.2023410000000001,0.2023410000000001,4.8074067159589095e-17,3.700743415417188e-17,61.0,61.0,61.0,61.0,61.0,0.0,0.0,33.030000000000015,33.02999999999999,33.03000000000001,33.030000000000015,33.030000000000015,1.1783018260144473e-14,7.105427357601002e-15,-24.23,-31.1,-27.6725,-27.68,-31.1,2.556974530573193,2.2900000000000005
1 -> 2,0.2023410000000001,0.202341,0.20234100000000008,0.2023410000000001,0.2023410000000001,4.8074067159589095e-17,3.700743415417188e-17,61.0,61.0,61.0,61.0,61.0,0.0,0.0,33.030000000000015,33.02999999999999,33.03000000000001,33.030000000000015,33.030000000000015,1.1783018260144473e-14,7.105427357601002e-15,-24.23,-31.1,-27.6725,-27.68,-31.1,2.556974530573193,2.2900000000000005
1 -> 2,0.2023410000000001,0.202341,0.20234100000000008,0.2023410000000001,0.2023410000000001,4.8074067159589095e-17,3.700743415417188e-17,61.0,61.0,61.0,61.0,61.0,0.0,0.0,33.030000000000015,33.02999999999999,33.03000000000001,33.030000000000015,33.030000000000015,1.1783018260144473e-14,7.105427357601002e-15,-12.88,-21.76,-17.4575,-17.595,-21.76,3.3111204674550883,2.9600000000000004
1 -> 2,0.2023410000000001,0.202341,0.20234100000000008,0.2023410000000001,0.2023410000000001,4.8074067159589095e-17,3.700743415417188e-17,61.0,61.0,61.0,61.0,61.0,0.0,0.0,33.030000000000015,33.02999999999999,33.03000000000001,33.030000000000015,33.030000000000015,1.1783018260144473e-14,7.105427357601002e-15,-12.88,-21.76,-17.4575,-17.595,-21.76,3.3111204674550883,2.9600000000000004
1 -> 2,0.2023410000000001,0.202341,0.20234100000000008,0.2023410000000001,0.2023410000000001,4.8074067159589095e-17,3.700743415417188e-17,61.0,61.0,61.0,61.0,61.0,0.0,0.0,33.030000000000015,33.02999999999999,33.03000000000001,33.030000000000015,33.030000000000015,1.1783018260144473e-14,7.105427357601002e-15,1.17,-9.38,-4.0075,-3.91,-9.38,3.9446633253042016,3.516666666666667
1 -> 2,0.2023410000000001,0.202341,0.20234100000000008,0.2023410000000001,0.2023410000000001,4.8074067159589095e-17,3.700743415417188e-17,61.0,61.0,61.0,61.0,61.0,0.0,0.0,33.030000000000015,33.02999999999999,33.03000000000001,33.030000000000015,33.030000000000015,1.1783018260144473e-14,7.105427357601002e-15,1.17,-9.38,-4.0075,-3.91,-9.38,3.9446633253042016,3.516666666666667
1 -> 2,0.2023410000000001,0.202341,0.20234100000000008,0.2023410000000001,0.2023410000000001,4.8074067159589095e-17,3.700743415417188e-17,61.0,61.0,61.0,61.0,61.0,0.0,0.0,33.030000000000015,33.02999999999999,33.03000000000001,33.030000000000015,33.030000000000015,1.1783018260144473e-14,7.105427357601002e-15,6.21,3.78,5.3875,5.78,3.78,0.9665499211111654,0.7633333333333335
1 -> 2,0.2023410000000001,0.202341,0.20234100000000008,0.2023410000000001,0.2023410000000001,4.8074067159589095e-17,3.700743415417188e-17,61.0,61.0,61.0,61.0,61.0,0.0,0.0,33.030000000000015,33.02999999999999,33.03000000000001,33.030000000000015,33.030000000000015,1.1783018260144473e-14,7.105427357601002e-15,6.21,3.78,5.3875,5.78,3.78,0.9665499211111654,0.7633333333333335
1 -> 2,0.19977900000000012,0.199779,0.1997790000000001,0.1997790000000001,0.19977900000000012,4.8074067159589095e-17,-1.850371707708594e-17,60.33,60.33,60.33,60.33,60.33,0.0,0.0,33.030000000000015,33.02999999999999,33.03000000000001,33.030000000000015,33.030000000000015,1.1783018260144473e-14,7.105427357601002e-15,5.4,3.68,4.4,4.26,3.68,0.6637770710110438,-0.5733333333333334
1 -> 2,0.19977900000000012,0.199779,0.1997790000000001,0.1997790000000001,0.19977900000000012,4.8074067159589095e-17,-1.850371707708594e-17,60.33,60.33,60.33,60.33,60.33,0.0,0.0,33.030000000000015,33.02999999999999,33.03000000000001,33.030000000000015,33.030000000000015,1.1783018260144473e-14,7.105427357601002e-15,5.4,3.68,4.4,4.26,3.68,0.6637770710110438,-0.5733333333333334
1 -> 2,0.19977900000000012,0.199779,0.1997790000000001,0.1997790000000001,0.19977900000000012,4.8074067159589095e-17,-1.850371707708594e-17,60.33,60.33,60.33,60.33,60.33,0.0,0.0,33.030000000000015,33.02999999999999,33.03000000000001,33.030000000000015,33.030000000000015,1.1783018260144473e-14,7.105427357601002e-15,5.05,3.78,4.385,4.355,3.78,0.4773101716913227,0.42333333333333334
1 -> 2,0.19977900000000012,0.199779,0.1997790000000001,0.1997790000000001,0.19977900000000012,4.8074067159589095e-17,-1.850371707708594e-17,60.33,60.33,60.33,60.33,60.33,0.0,0.0,33.030000000000015,33.02999999999999,33.03000000000001,33.030000000000015,33.030000000000015,1.1783018260144473e-14,7.105427357601002e-15,5.05,3.78,4.385,4.355,3.78,0.4773101716913227,0.42333333333333334
1 -> 2,0.19977900000000012,0.199779,0.1997790000000001,0.1997790000000001,0.19977900000000012,4.8074067159589095e-17,-1.850371707708594e-17,60.33,60.33,60.33,60.33,60.33,0.0,0.0,33.030000000000015,33.02999999999999,33.03000000000001,33.030000000000015,33.030000000000015,1.1783018260144473e-14,7.105427357601002e-15,6.16,5.5,5.925000000000001,6.02,5.5,0.26584770076116887,0.21333333333333324
1 -> 2,0.19977900000000012,0.199779,0.1997790000000001,0.1997790000000001,0.19977900000000012,4.8074067159589095e-17,-1.850371707708594e-17,60.33,60.33,60.33,60.33,60.33,0.0,0.0,33.030000000000015,33.02999999999999,33.03000000000001,33.030000000000015,33.030000000000015,1.1783018260144473e-14,7.105427357601002e-15,6.16,5.5,5.925000000000001,6.02,5.5,0.26584770076116887,0.21333333333333324
1 -> 2,0.19977900000000012,0.199779,0.1997790000000001,0.1997790000000001,0.19977900000000012,4.8074067159589095e-17,-1.850371707708594e-17,60.33,60.33,60.33,60.33,60.33,0.0,0.0,33.030000000000015,33.02999999999999,33.03000000000001,33.030000000000015,33.030000000000015,1.1783018260144473e-14,7.105427357601002e-15,5.76,4.72,5.195,5.15,5.15,0.37043892883982915,-0.20333333333333314
1 -> 2,0.19977900000000012,0.199779,0.1997790000000001,0.1997790000000001,0.19977900000000012,4.8074067159589095e-17,-1.850371707708594e-17,60.33,60.33,60.33,60.33,60.33,0.0,0.0,33.030000000000015,33.02999999999999,33.03000000000001,33.030000000000015,33.030000000000015,1.1783018260144473e-14,7.105427357601002e-15,5.76,4.72,5.195,5.15,5.15,0.37043892883982915,-0.20333333333333314
1 -> 2,0.19977900000000012,0.199779,0.1997790000000001,0.1997790000000001,0.19977900000000012,4.8074067159589095e-17,-1.850371707708594e-17,60.33,60.33,60.33,60.33,60.33,0.0,0.0,33.030000000000015,33.02999999999999,33.03000000000001,33.030000000000015,33.030000000000015,1.1783018260144473e-14,7.105427357601002e-15,26.07,7.18,15.595,14.565000000000001,7.18,7.129728255691097,6.296666666666667
1 -> 2,0.19977900000000012,0.199779,0.1997790000000001,0.1997790000000001,0.19977900000000012,4.8074067159589095e-17,-1.850371707708594e-17,60.33,60.33,60.33,60.33,60.33,0.0,0.0,33.030000000000015,33.02999999999999,33.03000000000001,33.030000000000015,33.030000000000015,1.1783018260144473e-14,7.105427357601002e-15,26.07,7.18,15.595,14.565000000000001,7.18,7.129728255691097,6.296666666666667
1 -> 2,0.19977900000000012,0.199779,0.1997790000000001,0.1997790000000001,0.19977900000000012,4.8074067159589095e-17,-1.850371707708594e-17,60.33,60.33,60.33,60.33,60.33,0.0,0.0,33.030000000000015,33.02999999999999,33.03000000000001,33.030000000000015,33.030000000000015,1.1783018260144473e-14,7.105427357601002e-15,61.37,35.47,48.9375,49.455,35.47,9.690684637836483,8.633333333333333
1 -> 2,0.19977900000000012,0.199779,0.1997790000000001,0.1997790000000001,0.19977900000000012,4.8074067159589095e-17,-1.850371707708594e-17,60.33,60.33,60.33,60.33,60.33,0.0,0.0,33.030000000000015,33.02999999999999,33.03000000000001,33.030000000000015,33.030000000000015,1.1783018260144473e-14,7.105427357601002e-15,61.37,35.47,48.9375,49.455,35.47,9.690684637836483,8.633333333333333
1 -> 2,0.19977900000000012,0.199779,0.1997790000000001,0.1997790000000001,0.19977900000000012,4.8074067159589095e-17,-1.850371707708594e-17,60.33,60.33,60.33,60.33,60.33,0.0,0.0,33.030000000000015,33.02999999999999,33.03000000000001,33.030000000000015,33.030000000000015,1.1783018260144473e-14,7.105427357601002e-15,71.77,67.04,69.985,70.565,67.04,1.7700353103822493,1.173333333333332
1 -> 2,0.19977900000000012,0.199779,0.1997790000000001,0.1997790000000001,0.19977900000000012,4.8074067159589095e-17,-1.850371707708594e-17,60.33,60.33,60.33,60.33,60.33,0.0,0.0,33.030000000000015,33.02999999999999,33.03000000000001,33.030000000000015,33.030000000000015,1.1783018260144473e-14,7.105427357601002e-15,71.77,67.04,69.985,70.565,67.04,1.7700353103822493,1.173333333333332
1 -> 2,0.19977900000000012,0.199779,0.1997790000000001,0.1997790000000001,0.19977900000000012,4.8074067159589095e-17,-1.850371707708594e-17,60.33,60.33,60.33,60.33,60.33,0.0,0.0,33.030000000000015,33.02999999999999,33.03000000000001,33.030000000000015,33.030000000000015,1.1783018260144473e-14,7.105427357601002e-15,67.18,50.96,59.21,59.35,50.96,6.080041118282017,-5.406666666666669
1 -> 2,0.19977900000000012,0.199779,0.1997790000000001,0.1997790000000001,0.19977900000000012,4.8074067159589095e-17,-1.850371707708594e-17,60.33,60.33,60.33,60.33,60.33,0.0,0.0,33.030000000000015,33.02999999999999,33.03000000000001,33.030000000000015,33.030000000000015,1.1783018260144473e-14,7.105427357601002e-15,67.18,50.96,59.21,59.35,50.96,6.080041118282017,-5.406666666666669
1 -> 2,0.1920960000000001,0.19209599999999996,0.19209600000000004,0.19209600000000007,0.1920960000000001,5.721958498152797e-17,2.7755575615628914e-17,60.33,60.33,60.33,60.33,60.33,0.0,0.0,33.030000000000015,33.02999999999999,33.03000000000001,33.030000000000015,33.030000000000015,1.1783018260144473e-14,7.105427357601002e-15,46.14,33.36,39.894999999999996,40.04,33.36,4.7346726391589105,-4.260000000000001
1 -> 2,0.1920960000000001,0.19209599999999996,0.19209600000000004,0.19209600000000007,0.1920960000000001,5.721958498152797e-17,2.7755575615628914e-17,60.33,60.33,60.33,60.33,60.33,0.0,0.0,33.030000000000015,33.02999999999999,33.03000000000001,33.030000000000015,33.030000000000015,1.1783018260144473e-14,7.105427357601002e-15,46.14,33.36,39.894999999999996,40.04,33.36,4.7346726391589105,-4.260000000000001
1 -> 2,0.1920960000000001,0.19209599999999996,0.19209600000000004,0.19209600000000007,0.1920960000000001,5.721958498152797e-17,2.7755575615628914e-17,60.33,60.33,60.33,60.33,60.33,0.0,0.0,33.030000000000015,33.02999999999999,33.03000000000001,33.030000000000015,33.030000000000015,1.1783018260144473e-14,7.105427357601002e-15,27.2,-0.05,14.115,14.655000000000001,-0.05,10.197697043940853,-9.083333333333334
1 -> 2,0.1920960000000001,0.19209599999999996,0.19209600000000004,0.19209600000000007,0.1920960000000001,5.721958498152797e-17,2.7755575615628914e-17,60.33,60.33,60.33,60.33,60.33,0.0,0.0,33.030000000000015,33.02999999999999,33.03000000000001,33.030000000000015,33.030000000000015,1.1783018260144473e-14,7.105427357601002e-15,27.2,-0.05,14.115,14.655000000000001,-0.05,10.197697043940853,-9.083333333333334
1 -> 2,0.1920960000000001,0.19209599999999996,0.19209600000000004,0.19209600000000007,0.1920960000000001,5.721958498152797e-17,2.7755575615628914e-17,60.33,60.33,60.33,60.33,60.33,0.0,0.0,33.030000000000015,33.02999999999999,33.03000000000001,33.030000000000015,33.030000000000015,1.1783018260144473e-14,7.105427357601002e-15,-9.94,-32.63,-22.012500000000003,-22.740000000000002,-32.63,8.493634013188938,-7.5633333333333335
1 -> 2,0.1920960000000001,0.19209599999999996,0.19209600000000004,0.19209600000000007,0.1920960000000001,5.721958498152797e-17,2.7755575615628914e-17,60.33,60.33,60.33,60.33,60.33,0.0,0.0,33.030000000000015,33.02999999999999,33.03000000000001,33.030000000000015,33.030000000000015,1.1783018260144473e-14,7.105427357601002e-15,-9.94,-32.63,-22.012500000000003,-22.740000000000002,-32.63,8.493634013188938,-7.5633333333333335
1 -> 2,0.1920960000000001,0.19209599999999996,0.19209600000000004,0.19209600000000007,0.1920960000000001,5.721958498152797e-17,2.7755575615628914e-17,60.33,60.33,60.33,60.33,60.33,0.0,0.0,33.030000000000015,33.02999999999999,33.03000000000001,33.030000000000015,33.030000000000015,1.1783018260144473e-14,7.105427357601002e-15,-37.25,-44.88,-41.46,-41.855000000000004,-44.88,2.860672997740217,-2.5433333333333343
1 -> 2,0.1920960000000001,0.19209599999999996,0.19209600000000004,0.19209600000000007,0.1920960000000001,5.721958498152797e-17,2.7755575615628914e-17,60.33,60.33,60.33,60.33,60.33,0.0,0.0,33.030000000000015,33.02999999999999,33.03000000000001,33.030000000000015,33.030000000000015,1.1783018260144473e-14,7.105427357601002e-15,-37.25,-44.88,-41.46,-41.855000000000004,-44.88,2.860672997740217,-2.5433333333333343
1 -> 2,0.19081500000000012,0.1908149999999999,0.190815,0.19081500000000007,0.19081500000000012,9.614813431917819e-17,3.700743415417188e-17,60.33,60.33,60.33,60.33,60.33,0.0,0.0,33.030000000000015,33.02999999999999,33.03000000000001,33.030000000000015,33.030000000000015,1.1783018260144473e-14,7.105427357601002e-15,-46.24,-47.65,-47.13250000000001,-47.32,-47.65,0.5404801106423798,-0.4033333333333336
1 -> 2,0.19081500000000012,0.1908149999999999,0.190815,0.19081500000000007,0.19081500000000012,9.614813431917819e-17,3.700743415417188e-17,60.33,60.33,60.33,60.33,60.33,0.0,0.0,33.030000000000015,33.02999999999999,33.03000000000001,33.030000000000015,33.030000000000015,1.1783018260144473e-14,7.105427357601002e-15,-46.24,-47.65,-47.13250000000001,-47.32,-47.65,0.5404801106423798,-0.4033333333333336
1 -> 2,0.19081500000000012,0.1908149999999999,0.190815,0.19081500000000007,0.19081500000000012,9.614813431917819e-17,3.700743415417188e-17,60.33,60.33,60.33,60.33,60.33,0.0,0.0,33.030000000000015,33.02999999999999,33.03000000000001,33.030000000000015,33.030000000000015,1.1783018260144473e-14,7.105427357601002e-15,-40.34,-46.48,-43.5625,-43.715,-46.48,2.3074485368042312,2.0466666666666646
1 -> 2,0.19081500000000012,0.1908149999999999,0.190815,0.19081500000000007,0.19081500000000012,9.614813431917819e-17,3.700743415417188e-17,60.33,60.33,60.33,60.33,60.33,0.0,0.0,33.030000000000015,33.02999999999999,33.03000000000001,33.030000000000015,33.030000000000015,1.1783018260144473e-14,7.105427357601002e-15,-40.34,-46.48,-43.5625,-43.715,-46.48,2.3074485368042312,2.0466666666666646
1 -> 2,0.19081500000000012,0.1908149999999999,0.190815,0.19081500000000007,0.19081500000000012,9.614813431917819e-17,3.700743415417188e-17,60.33,60.33,60.33,60.33,60.33,0.0,0.0,33.030000000000015,33.02999999999999,33.03000000000001,33.030000000000015,33.030000000000015,1.1783018260144473e-14,7.105427357601002e-15,-36.68,-38.35,-37.3425,-37.17,-38.35,0.6209418249723571,0.3533333333333341
1 -> 2,0.19081500000000012,0.1908149999999999,0.190815,0.19081500000000007,0.19081500000000012,9.614813431917819e-17,3.700743415417188e-17,60.33,60.33,60.33,60.33,60.33,0.0,0.0,33.030000000000015,33.02999999999999,33.03000000000001,33.030000000000015,33.030000000000015,1.1783018260144473e-14,7.105427357601002e-15,-36.68,-38.35,-37.3425,-37.17,-38.35,0.6209418249723571,0.3533333333333341
1 -> 2,0.19081500000000012,0.1908149999999999,0.190815,0.19081500000000007,0.19081500000000012,9.614813431917819e-17,3.700743415417188e-17,60.33,60.33,60.33,60.33,60.33,0.0,0.0,33.030000000000015,33.02999999999999,33.03000000000001,33.030000000000015,33.030000000000015,1.1783018260144473e-14,7.105427357601002e-15,-38.72,-43.81,-41.3925,-41.52,-43.81,1.9202132043083144,-1.6966666666666679
1 -> 2,0.19081500000000012,0.1908149999999999,0.190815,0.19081500000000007,0.19081500000000012,9.614813431917819e-17,3.700743415417188e-17,60.33,60.33,60.33,60.33,60.33,0.0,0.0,33.030000000000015,33.02999999999999,33.03000000000001,33.030000000000015,33.030000000000015,1.1783018260144473e-14,7.105427357601002e-15,-38.72,-43.81,-41.3925,-41.52,-43.81,1.9202132043083144,-1.6966666666666679
1 -> 2,0.18953400000000012,0.189534,0.18953400000000006,0.18953400000000006,0.189534,5.551115123125783e-17,0.0,59.0,59.0,59.0,59.0,59.0,0.0,0.0,33.030000000000015,33.02999999999999,33.03000000000001,33.030000000000015,33.030000000000015,1.1783018260144473e-14,7.105427357601002e-15,-38.05,-44.28,-41.864999999999995,-42.565,-44.28,2.42217361062332,2.076666666666668
1 -> 2,0.18953400000000012,0.189534,0.18953400000000006,0.18953400000000006,0.189534,5.551115123125783e-17,0.0,59.0,59.0,59.0,59.0,59.0,0.0,0.0,33.030000000000015,33.02999999999999,33.03000000000001,33.030000000000015,33.030000000000015,1.1783018260144473e-14,7.105427357601002e-15,-38.05,-44.28,-41.864999999999995,-42.565,-44.28,2.42217361062332,2.076666666666668
1 -> 2,0.18953400000000012,0.189534,0.18953400000000006,0.18953400000000006,0.189534,5.551115123125783e-17,0.0,59.0,59.0,59.0,59.0,59.0,0.0,0.0,33.030000000000015,33.02999999999999,33.03000000000001,33.030000000000015,33.030000000000015,1.1783018260144473e-14,7.105427357601002e-15,-12.69,-33.14,-23.202499999999997,-23.49,-33.14,7.647415821700819,6.816666666666667
1 -> 2,0.18953400000000012,0.189534,0.18953400000000006,0.18953400000000006,0.189534,5.551115123125783e-17,0.0,59.0,59.0,59.0,59.0,59.0,0.0,0.0,33.030000000000015,33.02999999999999,33.03000000000001,33.030000000000015,33.030000000000015,1.1783018260144473e-14,7.105427357601002e-15,-12.69,-33.14,-23.202499999999997,-23.49,-33.14,7.647415821700819,6.816666666666667
1 -> 2,0.18953400000000012,0.189534,0.18953400000000006,0.18953400000000006,0.189534,5.551115123125783e-17,0.0,59.0,59.0,59.0,59.0,59.0,0.0,0.0,33.030000000000015,33.02999999999999,33.03000000000001,33.030000000000015,33.030000000000015,1.1783018260144473e-14,7.105427357601002e-15,9.01,-5.69,2.2775,2.895,-5.69,5.516399980965847,4.8999999999999995
1 -> 2,0.18953400000000012,0.189534,0.18953400000000006,0.18953400000000006,0.189534,5.551115123125783e-17,0.0,59.0,59.0,59.0,59.0,59.0,0.0,0.0,33.030000000000015,33.02999999999999,33.03000000000001,33.030000000000015,33.030000000000015,1.1783018260144473e-14,7.105427357601002e-15,9.01,-5.69,2.2775,2.895,-5.69,5.516399980965847,4.8999999999999995
1 -> 2,0.18953400000000012,0.189534,0.18953400000000006,0.18953400000000006,0.189534,5.551115123125783e-17,0.0,59.0,59.0,59.0,59.0,59.0,0.0,0.0,33.030000000000015,33.02999999999999,33.03000000000001,33.030000000000015,33.030000000000015,1.1783018260144473e-14,7.105427357601002e-15,13.82,11.51,13.0475,13.43,11.51,0.9390254256408611,0.7633333333333336
1 -> 2,0.18953400000000012,0.189534,0.18953400000000006,0.18953400000000006,0.189534,5.551115123125783e-17,0.0,59.0,59.0,59.0,59.0,59.0,0.0,0.0,33.030000000000015,33.02999999999999,33.03000000000001,33.030000000000015,33.030000000000015,1.1783018260144473e-14,7.105427357601002e-15,13.82,11.51,13.0475,13.43,11.51,0.9390254256408611,0.7633333333333336
1 -> 2,0.1920960000000001,0.19209599999999996,0.19209600000000004,0.19209600000000007,0.1920960000000001,5.721958498152797e-17,2.7755575615628914e-17,59.0,59.0,59.0,59.0,59.0,0.0,0.0,33.030000000000015,33.02999999999999,33.03000000000001,33.030000000000015,33.030000000000015,1.1783018260144473e-14,7.105427357601002e-15,12.95,5.35,9.522499999999999,9.895,5.35,2.865356653193455,-2.533333333333333
1 -> 2,0.1920960000000001,0.19209599999999996,0.19209600000000004,0.19209600000000007,0.1920960000000001,5.721958498152797e-17,2.7755575615628914e-17,59.0,59.0,59.0,59.0,59.0,0.0,0.0,33.030000000000015,33.02999999999999,33.03000000000001,33.030000000000015,33.030000000000015,1.1783018260144473e-14,7.105427357601002e-15,12.95,5.35,9.522499999999999,9.895,5.35,2.865356653193455,-2.533333333333333
1 -> 2,0.1920960000000001,0.19209599999999996,0.19209600000000004,0.19209600000000007,0.1920960000000001,5.721958498152797e-17,2.7755575615628914e-17,59.0,59.0,59.0,59.0,59.0,0.0,0.0,33.030000000000015,33.02999999999999,33.03000000000001,33.030000000000015,33.030000000000015,1.1783018260144473e-14,7.105427357601002e-15,1.85,-6.63,-2.67,-2.9499999999999997,-6.63,3.1786789708934116,-2.8266666666666667
1 -> 2,0.1920960000000001,0.19209599999999996,0.19209600000000004,0.19209600000000007,0.1920960000000001,5.721958498152797e-17,2.7755575615628914e-17,59.0,59.0,59.0,59.0,59.0,0.0,0.0,33.030000000000015,33.02999999999999,33.03000000000001,33.030000000000015,33.030000000000015,1.1783018260144473e-14,7.105427357601002e-15,1.85,-6.63,-2.67,-2.9499999999999997,-6.63,3.1786789708934116,-2.8266666666666667
1 -> 2,0.1920960000000001,0.19209599999999996,0.19209600000000004,0.19209600000000007,0.1920960000000001,5.721958498152797e-17,2.7755575615628914e-17,59.0,59.0,59.0,59.0,59.0,0.0,0.0,33.030000000000015,33.02999999999999,33.03000000000001,33.030000000000015,33.030000000000015,1.1783018260144473e-14,7.105427357601002e-15,-8.21,-9.66,-9.15,-9.365,-9.66,0.5666127425323221,-0.43666666666666626
1 -> 2,0.1920960000000001,0.19209599999999996,0.19209600000000004,0.19209600000000007,0.1920960000000001,5.721958498152797e-17,2.7755575615628914e-17,59.0,59.0,59.0,59.0,59.0,0.0,0.0,33.030000000000015,33.02999999999999,33.03000000000001,33.030000000000015,33.030000000000015,1.1783018260144473e-14,7.105427357601002e-15,-8.21,-9.66,-9.15,-9.365,-9.66,0.5666127425323221,-0.43666666666666626
1 -> 2,0.1920960000000001,0.19209599999999996,0.19209600000000004,0.19209600000000007,0.1920960000000001,5.721958498152797e-17,2.7755575615628914e-17,59.0,59.0,59.0,59.0,59.0,0.0,0.0,33.030000000000015,33.02999999999999,33.03000000000001,33.030000000000015,33.030000000000015,1.1783018260144473e-14,7.105427357601002e-15,-2.4,-8.71,-5.8149999999999995,-6.075,-8.71,2.3757367278383352,2.1033333333333335
1 -> 2,0.1920960000000001,0.19209599999999996,0.19209600000000004,0.19209600000000007,0.1920960000000001,5.721958498152797e-17,2.7755575615628914e-17,59.0,59.0,59.0,59.0,59.0,0.0,0.0,33.030000000000015,33.02999999999999,33.03000000000001,33.030000000000015,33.030000000000015,1.1783018260144473e-14,7.105427357601002e-15,-2.4,-8.71,-5.8149999999999995,-6.075,-8.71,2.3757367278383352,2.1033333333333335
1 -> 2,0.1933760000000001,0.1933759999999999,0.19337600000000002,0.19337600000000002,0.1933760000000001,9.100274040305112e-17,-9.25185853854297e-18,59.0,59.0,59.0,59.0,59.0,0.0,0.0,33.030000000000015,33.02999999999999,33.03000000000001,33.030000000000015,33.030000000000015,1.1783018260144473e-14,7.105427357601002e-15,5.28,0.18,2.995,3.2600000000000002,0.18,1.9190427301131154,1.7
1 -> 2,0.1933760000000001,0.1933759999999999,0.19337600000000002,0.19337600000000002,0.1933760000000001,9.100274040305112e-17,-9.25185853854297e-18,59.0,59.0,59.0,59.0,59.0,0.0,0.0,33.030000000000015,33.02999999999999,33.03000000000001,33.030000000000015,33.030000000000015,1.1783018260144473e-14,7.105427357601002e-15,5.28,0.18,2.995,3.2600000000000002,0.18,1.9190427301131154,1.7
1 -> 2,0.1933760000000001,0.1933759999999999,0.19337600000000002,0.19337600000000002,0.1933760000000001,9.100274040305112e-17,-9.25185853854297e-18,59.0,59.0,59.0,59.0,59.0,0.0,0.0,33.030000000000015,33.02999999999999,33.03000000000001,33.030000000000015,33.030000000000015,1.1783018260144473e-14,7.105427357601002e-15,7.01,6.09,6.6525,6.755,6.09,0.3451358428213448,0.24666666666666673
1 -> 2,0.1933760000000001,0.1933759999999999,0.19337600000000002,0.19337600000000002,0.1933760000000001,9.100274040305112e-17,-9.25185853854297e-18,59.0,59.0,59.0,59.0,59.0,0.0,0.0,33.030000000000015,33.02999999999999,33.03000000000001,33.030000000000015,33.030000000000015,1.1783018260144473e-14,7.105427357601002e-15,7.01,6.09,6.6525,6.755,6.09,0.3451358428213448,0.24666666666666673
1 -> 2,0.1933760000000001,0.1933759999999999,0.19337600000000002,0.19337600000000002,0.1933760000000001,9.100274040305112e-17,-9.25185853854297e-18,59.0,59.0,59.0,59.0,59.0,0.0,0.0,33.030000000000015,33.02999999999999,33.03000000000001,33.030000000000015,33.030000000000015,1.1783018260144473e-14,7.105427357601002e-15,5.79,-3.54,1.575,2.025,-3.54,3.5196200078985798,-3.11
1 -> 2,0.1933760000000001,0.1933759999999999,0.19337600000000002,0.19337600000000002,0.1933760000000001,9.100274040305112e-17,-9.25185853854297e-18,59.0,59.0,59.0,59.0,59.0,0.0,0.0,33.030000000000015,33.02999999999999,33.03000000000001,33.030000000000015,33.030000000000015,1.1783018260144473e-14,7.105427357601002e-15,5.79,-3.54,1.575,2.025,-3.54,3.5196200078985798,-3.11
1 -> 2,0.1933760000000001,0.1933759999999999,0.19337600000000002,0.19337600000000002,0.1933760000000001,9.100274040305112e-17,-9.25185853854297e-18,59.0,59.0,59.0,59.0,59.0,0.0,0.0,33.030000000000015,33.02999999999999,33.03000000000001,33.030000000000015,33.030000000000015,1.1783018260144473e-14,7.105427357601002e-15,-7.69,-17.82,-12.99,-13.225000000000001,-17.82,3.77957008137169,-3.3766666666666665
1 -> 2,0.1933760000000001,0.1933759999999999,0.19337600000000002,0.19337600000000002,0.1933760000000001,9.100274040305112e-17,-9.25185853854297e-18,59.0,59.0,59.0,59.0,59.0,0.0,0.0,33.030000000000015,33.02999999999999,33.03000000000001,33.030000000000015,33.030000000000015,1.1783018260144473e-14,7.105427357601002e-15,-7.69,-17.82,-12.99,-13.225000000000001,-17.82,3.77957008137169,-3.3766666666666665
1 -> 2,0.1933760000000001,0.1933759999999999,0.19337600000000002,0.19337600000000002,0.1933760000000001,9.100274040305112e-17,-9.25185853854297e-18,59.0,59.0,59.0,59.0,59.0,0.0,0.0,33.030000000000015,33.02999999999999,33.03000000000001,33.030000000000015,33.030000000000015,1.1783018260144473e-14,7.105427357601002e-15,-20.66,-32.01,-26.009999999999998,-25.685,-32.01,4.238661345283437,-3.7833333333333328
1 -> 2,0.1933760000000001,0.1933759999999999,0.19337600000000002,0.19337600000000002,0.1933760000000001,9.100274040305112e-17,-9.25185853854297e-18,59.0,59.0,59.0,59.0,59.0,0.0,0.0,33.030000000000015,33.02999999999999,33.03000000000001,33.030000000000015,33.030000000000015,1.1783018260144473e-14,7.105427357601002e-15,-20.66,-32.01,-26.009999999999998,-25.685,-32.01,4.238661345283437,-3.7833333333333328
1 -> 2,0.1933760000000001,0.1933759999999999,0.19337600000000002,0.19337600000000002,0.1933760000000001,9.100274040305112e-17,-9.25185853854297e-18,59.0,59.0,59.0,59.0,59.0,0.0,0.0,33.030000000000015,33.02999999999999,33.03000000000001,33.030000000000015,33.030000000000015,1.1783018260144473e-14,7.105427357601002e-15,-36.99,-49.05,-43.61,-44.2,-49.05,4.569792117810173,-4.019999999999999
1 -> 2,0.1933760000000001,0.1933759999999999,0.19337600000000002,0.19337600000000002,0.1933760000000001,9.100274040305112e-17,-9.25185853854297e-18,59.0,59.0,59.0,59.0,59.0,0.0,0.0,33.030000000000015,33.02999999999999,33.03000000000001,33.030000000000015,33.030000000000015,1.1783018260144473e-14,7.105427357601002e-15,-36.99,-49.05,-43.61,-44.2,-49.05,4.569792117810173,-4.019999999999999
1 -> 2,0.1933760000000001,0.1933759999999999,0.19337600000000002,0.19337600000000002,0.1933760000000001,9.100274040305112e-17,-9.25185853854297e-18,59.0,59.0,59.0,59.0,59.0,0.0,0.0,33.030000000000015,33.02999999999999,33.03000000000001,33.030000000000015,33.030000000000015,1.1783018260144473e-14,7.105427357601002e-15,-31.98,-49.17,-41.8675,-43.16,-49.17,6.567923473214347,5.73
1 -> 2,0.1933760000000001,0.1933759999999999,0.19337600000000002,0.19337600000000002,0.1933760000000001,9.100274040305112e-17,-9.25185853854297e-18,59.0,59.0,59.0,59.0,59.0,0.0,0.0,33.030000000000015,33.02999999999999,33.03000000000001,33.030000000000015,33.030000000000015,1.1783018260144473e-14,7.105427357601002e-15,-31.98,-49.17,-41.8675,-43.16,-49.17,6.567923473214347,5.73
1 -> 2,0.1933760000000001,0.1933759999999999,0.19337600000000002,0.19337600000000002,0.1933760000000001,9.100274040305112e-17,-9.25185853854297e-18,59.0,59.0,59.0,59.0,59.0,0.0,0.0,33.030000000000015,33.02999999999999,33.03000000000001,33.030000000000015,33.030000000000015,1.1783018260144473e-14,7.105427357601002e-15,-3.35,-23.0,-12.2425,-11.31,-23.0,7.396801251216637,6.55
1 -> 2,0.1933760000000001,0.1933759999999999,0.19337600000000002,0.19337600000000002,0.1933760000000001,9.100274040305112e-17,-9.25185853854297e-18,59.0,59.0,59.0,59.0,59.0,0.0,0.0,33.030000000000015,33.02999999999999,33.03000000000001,33.030000000000015,33.030000000000015,1.1783018260144473e-14,7.105427357601002e-15,-3.35,-23.0,-12.2425,-11.31,-23.0,7.396801251216637,6.55
1 -> 2,0.1933760000000001,0.1933759999999999,0.19337600000000002,0.19337600000000002,0.1933760000000001,9.100274040305112e-17,-9.25185853854297e-18,64.2,64.2,64.2,64.2,64.2,0.0,0.0,33.000000000000014,32.99999999999997,33.0,33.0,33.000000000000014,1.7763568394002505e-14,7.105427357601002e-15,2.01,-0.6,0.9475,1.19,-0.6,0.9874810124756829,0.8699999999999998
1 -> 2,0.1933760000000001,0.1933759999999999,0.19337600000000002,0.19337600000000002,0.1933760000000001,9.100274040305112e-17,-9.25185853854297e-18,64.2,64.2,64.2,64.2,64.2,0.0,0.0,33.000000000000014,32.99999999999997,33.0,33.0,33.000000000000014,1.7763568394002505e-14,7.105427357601002e-15,2.01,-0.6,0.9475,1.19,-0.6,0.9874810124756829,0.8699999999999998
1 -> 2,0.1933760000000001,0.1933759999999999,0.19337600000000002,0.19337600000000002,0.1933760000000001,9.100274040305112e-17,-9.25185853854297e-18,64.2,64.2,64.2,64.2,64.2,0.0,0.0,33.000000000000014,32.99999999999997,33.0,33.0,33.000000000000014,1.7763568394002505e-14,7.105427357601002e-15,4.78,2.47,3.5550000000000006,3.485,2.47,0.8659821014316637,0.77
1 -> 2,0.1933760000000001,0.1933759999999999,0.19337600000000002,0.19337600000000002,0.1933760000000001,9.100274040305112e-17,-9.25185853854297e-18,64.2,64.2,64.2,64.2,64.2,0.0,0.0,33.000000000000014,32.99999999999997,33.0,33.0,33.000000000000014,1.7763568394002505e-14,7.105427357601002e-15,4.78,2.47,3.5550000000000006,3.485,2.47,0.8659821014316637,0.77
1 -> 2,0.1933760000000001,0.1933759999999999,0.19337600000000002,0.19337600000000002,0.1933760000000001,9.100274040305112e-17,-9.25185853854297e-18,64.2,64.2,64.2,64.2,64.2,0.0,0.0,33.000000000000014,32.99999999999997,33.0,33.0,33.000000000000014,1.7763568394002505e-14,7.105427357601002e-15,6.76,5.66,6.3475,6.485,5.66,0.4286825748732971,0.36666666666666653
1 -> 2,0.1933760000000001,0.1933759999999999,0.19337600000000002,0.19337600000000002,0.1933760000000001,9.100274040305112e-17,-9.25185853854297e-18,64.2,64.2,64.2,64.2,64.2,0.0,0.0,33.000000000000014,32.99999999999997,33.0,33.0,33.000000000000014,1.7763568394002505e-14,7.105427357601002e-15,6.76,5.66,6.3475,6.485,5.66,0.4286825748732971,0.36666666666666653
1 -> 2,0.1933760000000001,0.1933759999999999,0.19337600000000002,0.19337600000000002,0.1933760000000001,9.100274040305112e-17,-9.25185853854297e-18,64.2,64.2,64.2,64.2,64.2,0.0,0.0,33.000000000000014,32.99999999999997,33.0,33.0,33.000000000000014,1.7763568394002505e-14,7.105427357601002e-15,13.56,7.02,9.6675,9.045,7.02,2.510192970669785,2.18
1 -> 2,0.1933760000000001,0.1933759999999999,0.19337600000000002,0.19337600000000002,0.1933760000000001,9.100274040305112e-17,-9.25185853854297e-18,64.2,64.2,64.2,64.2,64.2,0.0,0.0,33.000000000000014,32.99999999999997,33.0,33.0,33.000000000000014,1.7763568394002505e-14,7.105427357601002e-15,13.56,7.02,9.6675,9.045,7.02,2.510192970669785,2.18
1 -> 2,0.1959370000000001,0.1959369999999999,0.19593700000000003,0.19593700000000003,0.1959370000000001,1.0659731080981682e-16,-9.25185853854297e-18,64.2,64.2,64.2,64.2,64.2,0.0,0.0,33.000000000000014,32.99999999999997,33.0,33.0,33.000000000000014,1.7763568394002505e-14,7.105427357601002e-15,32.04,18.1,25.310000000000002,25.549999999999997,18.1,5.222666943238865,4.646666666666666
1 -> 2,0.1959370000000001,0.1959369999999999,0.19593700000000003,0.19593700000000003,0.1959370000000001,1.0659731080981682e-16,-9.25185853854297e-18,64.2,64.2,64.2,64.2,64.2,0.0,0.0,33.000000000000014,32.99999999999997,33.0,33.0,33.000000000000014,1.7763568394002505e-14,7.105427357601002e-15,32.04,18.1,25.310000000000002,25.549999999999997,18.1,5.222666943238865,4.646666666666666
1 -> 2,0.1959370000000001,0.1959369999999999,0.19593700000000003,0.19593700000000003,0.1959370000000001,1.0659731080981682e-16,-9.25185853854297e-18,64.2,64.2,64.2,64.2,64.2,0.0,0.0,33.000000000000014,32.99999999999997,33.0,33.0,33.000000000000014,1.7763568394002505e-14,7.105427357601002e-15,39.0,35.09,37.405,37.765,35.09,1.4953009730485687,1.3033333333333321
1 -> 2,0.1959370000000001,0.1959369999999999,0.19593700000000003,0.19593700000000003,0.1959370000000001,1.0659731080981682e-16,-9.25185853854297e-18,64.2,64.2,64.2,64.2,64.2,0.0,0.0,33.000000000000014,32.99999999999997,33.0,33.0,33.000000000000014,1.7763568394002505e-14,7.105427357601002e-15,39.0,35.09,37.405,37.765,35.09,1.4953009730485687,1.3033333333333321
1 -> 2,0.1959370000000001,0.1959369999999999,0.19593700000000003,0.19593700000000003,0.1959370000000001,1.0659731080981682e-16,-9.25185853854297e-18,64.2,64.2,64.2,64.2,64.2,0.0,0.0,33.000000000000014,32.99999999999997,33.0,33.0,33.000000000000014,1.7763568394002505e-14,7.105427357601002e-15,39.03,34.94,37.365,37.745000000000005,34.94,1.5694664698552832,-1.3633333333333344
1 -> 2,0.1959370000000001,0.1959369999999999,0.19593700000000003,0.19593700000000003,0.1959370000000001,1.0659731080981682e-16,-9.25185853854297e-18,64.2,64.2,64.2,64.2,64.2,0.0,0.0,33.000000000000014,32.99999999999997,33.0,33.0,33.000000000000014,1.7763568394002505e-14,7.105427357601002e-15,39.03,34.94,37.365,37.745000000000005,34.94,1.5694664698552832,-1.3633333333333344
1 -> 2,0.1959370000000001,0.1959369999999999,0.19593700000000003,0.19593700000000003,0.1959370000000001,1.0659731080981682e-16,-9.25185853854297e-18,64.2,64.2,64.2,64.2,64.2,0.0,0.0,33.000000000000014,32.99999999999997,33.0,33.0,33.000000000000014,1.7763568394002505e-14,7.105427357601002e-15,32.1,21.63,26.91,26.955,21.63,3.913521432163111,-3.4900000000000007
1 -> 2,0.1959370000000001,0.1959369999999999,0.19593700000000003,0.19593700000000003,0.1959370000000001,1.0659731080981682e-16,-9.25185853854297e-18,64.2,64.2,64.2,64.2,64.2,0.0,0.0,33.000000000000014,32.99999999999997,33.0,33.0,33.000000000000014,1.7763568394002505e-14,7.105427357601002e-15,32.1,21.63,26.91,26.955,21.63,3.913521432163111,-3.4900000000000007
1 -> 2,0.19721800000000012,0.1972179999999999,0.197218,0.197218,0.1972179999999999,1.1102230246251565e-16,0.0,64.2,64.2,64.2,64.2,64.2,0.0,0.0,33.000000000000014,32.99999999999997,33.0,33.0,33.000000000000014,1.7763568394002505e-14,7.105427357601002e-15,18.48,12.8,15.322499999999998,15.004999999999999,12.8,2.135747819851398,-1.8933333333333333
1 -> 2,0.19721800000000012,0.1972179999999999,0.197218,0.197218,0.1972179999999999,1.1102230246251565e-16,0.0,64.2,64.2,64.2,64.2,64.2,0.0,0.0,33.000000000000014,32.99999999999997,33.0,33.0,33.000000000000014,1.7763568394002505e-14,7.105427357601002e-15,18.48,12.8,15.322499999999998,15.004999999999999,12.8,2.135747819851398,-1.8933333333333333
1 -> 2,0.19721800000000012,0.1972179999999999,0.197218,0.197218,0.1972179999999999,1.1102230246251565e-16,0.0,64.2,64.2,64.2,64.2,64.2,0.0,0.0,33.000000000000014,32.99999999999997,33.0,33.0,33.000000000000014,1.7763568394002505e-14,7.105427357601002e-15,11.66,2.41,7.812499999999999,8.59,2.41,3.5123523100623033,-3.0833333333333335
1 -> 2,0.19721800000000012,0.1972179999999999,0.197218,0.197218,0.1972179999999999,1.1102230246251565e-16,0.0,64.2,64.2,64.2,64.2,64.2,0.0,0.0,33.000000000000014,32.99999999999997,33.0,33.0,33.000000000000014,1.7763568394002505e-14,7.105427357601002e-15,11.66,2.41,7.812499999999999,8.59,2.41,3.5123523100623033,-3.0833333333333335
1 -> 2,0.19721800000000012,0.1972179999999999,0.197218,0.197218,0.1972179999999999,1.1102230246251565e-16,0.0,64.2,64.2,64.2,64.2,64.2,0.0,0.0,33.000000000000014,32.99999999999997,33.0,33.0,33.000000000000014,1.7763568394002505e-14,7.105427357601002e-15,-4.35,-28.58,-16.7025,-16.94,-28.58,9.095662084202557,-8.076666666666666
1 -> 2,0.19721800000000012,0.1972179999999999,0.197218,0.197218,0.1972179999999999,1.1102230246251565e-16,0.0,64.2,64.2,64.2,64.2,64.2,0.0,0.0,33.000000000000014,32.99999999999997,33.0,33.0,33.000000000000014,1.7763568394002505e-14,7.105427357601002e-15,-4.35,-28.58,-16.7025,-16.94,-28.58,9.095662084202557,-8.076666666666666
1 -> 2,0.19721800000000012,0.1972179999999999,0.197218,0.197218,0.1972179999999999,1.1102230246251565e-16,0.0,64.2,64.2,64.2,64.2,64.2,0.0,0.0,33.000000000000014,32.99999999999997,33.0,33.0,33.000000000000014,1.7763568394002505e-14,7.105427357601002e-15,-22.92,-33.51,-29.835,-31.455000000000002,-33.51,4.226999526851167,3.366666666666667
1 -> 2,0.19721800000000012,0.1972179999999999,0.197218,0.197218,0.1972179999999999,1.1102230246251565e-16,0.0,64.2,64.2,64.2,64.2,64.2,0.0,0.0,33.000000000000014,32.99999999999997,33.0,33.0,33.000000000000014,1.7763568394002505e-14,7.105427357601002e-15,-22.92,-33.51,-29.835,-31.455000000000002,-33.51,4.226999526851167,3.366666666666667
1 -> 2,0.19721800000000012,0.1972179999999999,0.197218,0.197218,0.1972179999999999,1.1102230246251565e-16,0.0,64.2,64.2,64.2,64.2,64.2,0.0,0.0,33.000000000000014,32.99999999999997,33.0,33.0,33.000000000000014,1.7763568394002505e-14,7.105427357601002e-15,9.73,-14.03,-1.4375,-0.7250000000000001,-14.03,8.913998471505366,7.919999999999999
1 -> 2,0.19721800000000012,0.1972179999999999,0.197218,0.197218,0.1972179999999999,1.1102230246251565e-16,0.0,64.2,64.2,64.2,64.2,64.2,0.0,0.0,33.000000000000014,32.99999999999997,33.0,33.0,33.000000000000014,1.7763568394002505e-14,7.105427357601002e-15,9.73,-14.03,-1.4375,-0.7250000000000001,-14.03,8.913998471505366,7.919999999999999
1 -> 2,0.19721800000000012,0.1972179999999999,0.197218,0.197218,0.1972179999999999,1.1102230246251565e-16,0.0,64.2,64.2,64.2,64.2,64.2,0.0,0.0,33.000000000000014,32.99999999999997,33.0,33.0,33.000000000000014,1.7763568394002505e-14,7.105427357601002e-15,16.74,13.99,15.685,16.005,13.99,1.0381353476305482,0.5899999999999999
1 -> 2,0.19721800000000012,0.1972179999999999,0.197218,0.197218,0.1972179999999999,1.1102230246251565e-16,0.0,64.2,64.2,64.2,64.2,64.2,0.0,0.0,33.000000000000014,32.99999999999997,33.0,33.0,33.000000000000014,1.7763568394002505e-14,7.105427357601002e-15,16.74,13.99,15.685,16.005,13.99,1.0381353476305482,0.5899999999999999
1 -> 2,0.19721800000000012,0.1972179999999999,0.197218,0.197218,0.1972179999999999,1.1102230246251565e-16,0.0,64.2,64.2,64.2,64.2,64.2,0.0,0.0,33.000000000000014,32.99999999999997,33.0,33.0,33.000000000000014,1.7763568394002505e-14,7.105427357601002e-15,13.6,4.53,9.0625,9.06,4.53,3.402817766204943,-3.0233333333333334
1 -> 2,0.19721800000000012,0.1972179999999999,0.197218,0.197218,0.1972179999999999,1.1102230246251565e-16,0.0,64.2,64.2,64.2,64.2,64.2,0.0,0.0,33.000000000000014,32.99999999999997,33.0,33.0,33.000000000000014,1.7763568394002505e-14,7.105427357601002e-15,13.6,4.53,9.0625,9.06,4.53,3.402817766204943,-3.0233333333333334
1 -> 2,0.19721800000000012,0.1972179999999999,0.197218,0.197218,0.1972179999999999,1.1102230246251565e-16,0.0,64.2,64.2,64.2,64.2,64.2,0.0,0.0,33.000000000000014,32.99999999999997,33.0,33.0,33.000000000000014,1.7763568394002505e-14,7.105427357601002e-15,2.36,0.99,1.5150000000000001,1.355,0.99,0.5232829062753722,-0.27999999999999997
1 -> 2,0.19721800000000012,0.1972179999999999,0.197218,0.197218,0.1972179999999999,1.1102230246251565e-16,0.0,64.2,64.2,64.2,64.2,64.2,0.0,0.0,33.000000000000014,32.99999999999997,33.0,33.0,33.000000000000014,1.7763568394002505e-14,7.105427357601002e-15,2.36,0.99,1.5150000000000001,1.355,0.99,0.5232829062753722,-0.27999999999999997
1 -> 2,0.19849900000000012,0.19849899999999995,0.19849900000000004,0.19849900000000004,0.19849900000000012,7.72682523912663e-17,9.25185853854297e-18,68.17,68.17,68.17,68.17,68.17,0.0,0.0,33.030000000000015,33.02999999999999,33.03000000000001,33.030000000000015,33.030000000000015,1.1783018260144473e-14,7.105427357601002e-15,6.74,2.48,4.475,4.34,2.48,1.5889383247942634,1.42
1 -> 2,0.19849900000000012,0.19849899999999995,0.19849900000000004,0.19849900000000004,0.19849900000000012,7.72682523912663e-17,9.25185853854297e-18,68.17,68.17,68.17,68.17,68.17,0.0,0.0,33.030000000000015,33.02999999999999,33.03000000000001,33.030000000000015,33.030000000000015,1.1783018260144473e-14,7.105427357601002e-15,6.74,2.48,4.475,4.34,2.48,1.5889383247942634,1.42
1 -> 2,0.19849900000000012,0.19849899999999995,0.19849900000000004,0.19849900000000004,0.19849900000000012,7.72682523912663e-17,9.25185853854297e-18,68.17,68.17,68.17,68.17,68.17,0.0,0.0,33.030000000000015,33.02999999999999,33.03000000000001,33.030000000000015,33.030000000000015,1.1783018260144473e-14,7.105427357601002e-15,17.77,8.91,13.239999999999998,13.14,8.91,3.3155542523083525,2.953333333333333
1 -> 2,0.19849900000000012,0.19849899999999995,0.19849900000000004,0.19849900000000004,0.19849900000000012,7.72682523912663e-17,9.25185853854297e-18,68.17,68.17,68.17,68.17,68.17,0.0,0.0,33.030000000000015,33.02999999999999,33.03000000000001,33.030000000000015,33.030000000000015,1.1783018260144473e-14,7.105427357601002e-15,17.77,8.91,13.239999999999998,13.14,8.91,3.3155542523083525,2.953333333333333
1 -> 2,0.19849900000000012,0.19849899999999995,0.19849900000000004,0.19849900000000004,0.19849900000000012,7.72682523912663e-17,9.25185853854297e-18,68.17,68.17,68.17,68.17,68.17,0.0,0.0,33.030000000000015,33.02999999999999,33.03000000000001,33.030000000000015,33.030000000000015,1.1783018260144473e-14,7.105427357601002e-15,23.44,20.49,22.4525,22.94,20.49,1.2002786134893861,0.9766666666666678
1 -> 2,0.19849900000000012,0.19849899999999995,0.19849900000000004,0.19849900000000004,0.19849900000000012,7.72682523912663e-17,9.25185853854297e-18,68.17,68.17,68.17,68.17,68.17,0.0,0.0,33.030000000000015,33.02999999999999,33.03000000000001,33.030000000000015,33.030000000000015,1.1783018260144473e-14,7.105427357601002e-15,23.44,20.49,22.4525,22.94,20.49,1.2002786134893861,0.9766666666666678
1 -> 2,0.19849900000000012,0.19849899999999995,0.19849900000000004,0.19849900000000004,0.19849900000000012,7.72682523912663e-17,9.25185853854297e-18,68.17,68.17,68.17,68.17,68.17,0.0,0.0,33.030000000000015,33.02999999999999,33.03000000000001,33.030000000000015,33.030000000000015,1.1783018260144473e-14,7.105427357601002e-15,22.57,17.83,20.29,20.380000000000003,17.83,1.7733020047357988,-1.5800000000000007
1 -> 2,0.19849900000000012,0.19849899999999995,0.19849900000000004,0.19849900000000004,0.19849900000000012,7.72682523912663e-17,9.25185853854297e-18,68.17,68.17,68.17,68.17,68.17,0.0,0.0,33.030000000000015,33.02999999999999,33.03000000000001,33.030000000000015,33.030000000000015,1.1783018260144473e-14,7.105427357601002e-15,22.57,17.83,20.29,20.380000000000003,17.83,1.7733020047357988,-1.5800000000000007
1 -> 2,0.19721800000000012,0.1972179999999999,0.197218,0.197218,0.1972179999999999,1.1102230246251565e-16,0.0,68.17,68.17,68.17,68.17,68.17,0.0,0.0,33.030000000000015,33.02999999999999,33.03000000000001,33.030000000000015,33.030000000000015,1.1783018260144473e-14,7.105427357601002e-15,15.86,4.68,10.8775,11.485,4.68,4.197870740029997,-3.7266666666666666
1 -> 2,0.19721800000000012,0.1972179999999999,0.197218,0.197218,0.1972179999999999,1.1102230246251565e-16,0.0,68.17,68.17,68.17,68.17,68.17,0.0,0.0,33.030000000000015,33.02999999999999,33.03000000000001,33.030000000000015,33.030000000000015,1.1783018260144473e-14,7.105427357601002e-15,15.86,4.68,10.8775,11.485,4.68,4.197870740029997,-3.7266666666666666
1 -> 2,0.19721800000000012,0.1972179999999999,0.197218,0.197218,0.1972179999999999,1.1102230246251565e-16,0.0,68.17,68.17,68.17,68.17,68.17,0.0,0.0,33.030000000000015,33.02999999999999,33.03000000000001,33.030000000000015,33.030000000000015,1.1783018260144473e-14,7.105427357601002e-15,-1.75,-25.91,-13.6375,-13.445,-25.91,9.025899885883955,-8.053333333333333
1 -> 2,0.19721800000000012,0.1972179999999999,0.197218,0.197218,0.1972179999999999,1.1102230246251565e-16,0.0,68.17,68.17,68.17,68.17,68.17,0.0,0.0,33.030000000000015,33.02999999999999,33.03000000000001,33.030000000000015,33.030000000000015,1.1783018260144473e-14,7.105427357601002e-15,-1.75,-25.91,-13.6375,-13.445,-25.91,9.025899885883955,-8.053333333333333
1 -> 2,0.19721800000000012,0.1972179999999999,0.197218,0.197218,0.1972179999999999,1.1102230246251565e-16,0.0,68.17,68.17,68.17,68.17,68.17,0.0,0.0,33.030000000000015,33.02999999999999,33.03000000000001,33.030000000000015,33.030000000000015,1.1783018260144473e-14,7.105427357601002e-15,-34.07,-58.07,-46.01,-45.95,-58.07,8.93335603230947,-8.0
1 -> 2,0.19721800000000012,0.1972179999999999,0.197218,0.197218,0.1972179999999999,1.1102230246251565e-16,0.0,68.17,68.17,68.17,68.17,68.17,0.0,0.0,33.030000000000015,33.02999999999999,33.03000000000001,33.030000000000015,33.030000000000015,1.1783018260144473e-14,7.105427357601002e-15,-34.07,-58.07,-46.01,-45.95,-58.07,8.93335603230947,-8.0
1 -> 2,0.19721800000000012,0.1972179999999999,0.197218,0.197218,0.1972179999999999,1.1102230246251565e-16,0.0,68.17,68.17,68.17,68.17,68.17,0.0,0.0,33.030000000000015,33.02999999999999,33.03000000000001,33.030000000000015,33.030000000000015,1.1783018260144473e-14,7.105427357601002e-15,-66.78,-95.57,-81.0875,-81.0,-95.57,10.7481565279819,-9.596666666666664
1 -> 2,0.19721800000000012,0.1972179999999999,0.197218,0.197218,0.1972179999999999,1.1102230246251565e-16,0.0,68.17,68.17,68.17,68.17,68.17,0.0,0.0,33.030000000000015,33.02999999999999,33.03000000000001,33.030000000000015,33.030000000000015,1.1783018260144473e-14,7.105427357601002e-15,-66.78,-95.57,-81.0875,-81.0,-95.57,10.7481565279819,-9.596666666666664
1 -> 2,0.19977900000000012,0.199779,0.1997790000000001,0.1997790000000001,0.19977900000000012,4.8074067159589095e-17,-1.850371707708594e-17,68.17,68.17,68.17,68.17,68.17,0.0,0.0,33.030000000000015,33.02999999999999,33.03000000000001,33.030000000000015,33.030000000000015,1.1783018260144473e-14,7.105427357601002e-15,-104.38,-117.62,-112.33250000000001,-113.66499999999999,-117.62,5.119352376033518,-4.413333333333337
1 -> 2,0.19977900000000012,0.199779,0.1997790000000001,0.1997790000000001,0.19977900000000012,4.8074067159589095e-17,-1.850371707708594e-17,68.17,68.17,68.17,68.17,68.17,0.0,0.0,33.030000000000015,33.02999999999999,33.03000000000001,33.030000000000015,33.030000000000015,1.1783018260144473e-14,7.105427357601002e-15,-104.38,-117.62,-112.33250000000001,-113.66499999999999,-117.62,5.119352376033518,-4.413333333333337
1 -> 2,0.19977900000000012,0.199779,0.1997790000000001,0.1997790000000001,0.19977900000000012,4.8074067159589095e-17,-1.850371707708594e-17,68.17,68.17,68.17,68.17,68.17,0.0,0.0,33.030000000000015,33.02999999999999,33.03000000000001,33.030000000000015,33.030000000000015,1.1783018260144473e-14,7.105427357601002e-15,-113.27,-116.96,-114.68499999999999,-114.255,-116.96,1.4896392180659033,1.2299999999999993
1 -> 2,0.19977900000000012,0.199779,0.1997790000000001,0.1997790000000001,0.19977900000000012,4.8074067159589095e-17,-1.850371707708594e-17,68.17,68.17,68.17,68.17,68.17,0.0,0.0,33.030000000000015,33.02999999999999,33.03000000000001,33.030000000000015,33.030000000000015,1.1783018260144473e-14,7.105427357601002e-15,-113.27,-116.96,-114.68499999999999,-114.255,-116.96,1.4896392180659033,1.2299999999999993
1 -> 2,0.19977900000000012,0.199779,0.1997790000000001,0.1997790000000001,0.19977900000000012,4.8074067159589095e-17,-1.850371707708594e-17,68.17,68.17,68.17,68.17,68.17,0.0,0.0,33.030000000000015,33.02999999999999,33.03000000000001,33.030000000000015,33.030000000000015,1.1783018260144473e-14,7.105427357601002e-15,-114.9,-119.48,-117.67,-118.15,-119.48,1.7448925468349028,-1.2899999999999967
1 -> 2,0.19977900000000012,0.199779,0.1997790000000001,0.1997790000000001,0.19977900000000012,4.8074067159589095e-17,-1.850371707708594e-17,68.17,68.17,68.17,68.17,68.17,0.0,0.0,33.030000000000015,33.02999999999999,33.03000000000001,33.030000000000015,33.030000000000015,1.1783018260144473e-14,7.105427357601002e-15,-114.9,-119.48,-117.67,-118.15,-119.48,1.7448925468349028,-1.2899999999999967
1 -> 2,0.19977900000000012,0.199779,0.1997790000000001,0.1997790000000001,0.19977900000000012,4.8074067159589095e-17,-1.850371707708594e-17,68.17,68.17,68.17,68.17,68.17,0.0,0.0,33.030000000000015,33.02999999999999,33.03000000000001,33.030000000000015,33.030000000000015,1.1783018260144473e-14,7.105427357601002e-15,-74.41,-113.94,-95.9375,-97.7,-113.94,14.880128317659095,13.176666666666668
1 -> 2,0.19977900000000012,0.199779,0.1997790000000001,0.1997790000000001,0.19977900000000012,4.8074067159589095e-17,-1.850371707708594e-17,68.17,68.17,68.17,68.17,68.17,0.0,0.0,33.030000000000015,33.02999999999999,33.03000000000001,33.030000000000015,33.030000000000015,1.1783018260144473e-14,7.105427357601002e-15,-74.41,-113.94,-95.9375,-97.7,-113.94,14.880128317659095,13.176666666666668
1 -> 2,0.19849900000000012,0.19849899999999995,0.19849900000000004,0.19849900000000004,0.19849900000000012,7.72682523912663e-17,9.25185853854297e-18,68.17,68.17,68.17,68.17,68.17,0.0,0.0,33.030000000000015,33.02999999999999,33.03000000000001,33.030000000000015,33.030000000000015,1.1783018260144473e-14,7.105427357601002e-15,0.12,-56.22,-27.935,-27.82,-56.22,21.01946062581055,18.78
1 -> 2,0.19849900000000012,0.19849899999999995,0.19849900000000004,0.19849900000000004,0.19849900000000012,7.72682523912663e-17,9.25185853854297e-18,68.17,68.17,68.17,68.17,68.17,0.0,0.0,33.030000000000015,33.02999999999999,33.03000000000001,33.030000000000015,33.030000000000015,1.1783018260144473e-14,7.105427357601002e-15,0.12,-56.22,-27.935,-27.82,-56.22,21.01946062581055,18.78
1 -> 2,0.19849900000000012,0.19849899999999995,0.19849900000000004,0.19849900000000004,0.19849900000000012,7.72682523912663e-17,9.25185853854297e-18,68.17,68.17,68.17,68.17,68.17,0.0,0.0,33.030000000000015,33.02999999999999,33.03000000000001,33.030000000000015,33.030000000000015,1.1783018260144473e-14,7.105427357601002e-15,51.99,17.27,36.33,38.03,17.27,13.06692771848073,11.573333333333332
1 -> 2,0.19849900000000012,0.19849899999999995,0.19849900000000004,0.19849900000000004,0.19849900000000012,7.72682523912663e-17,9.25185853854297e-18,68.17,68.17,68.17,68.17,68.17,0.0,0.0,33.030000000000015,33.02999999999999,33.03000000000001,33.030000000000015,33.030000000000015,1.1783018260144473e-14,7.105427357601002e-15,51.99,17.27,36.33,38.03,17.27,13.06692771848073,11.573333333333332
1 -> 2,0.19849900000000012,0.19849899999999995,0.19849900000000004,0.19849900000000004,0.19849900000000012,7.72682523912663e-17,9.25185853854297e-18,68.17,68.17,68.17,68.17,68.17,0.0,0.0,33.030000000000015,33.02999999999999,33.03000000000001,33.030000000000015,33.030000000000015,1.1783018260144473e-14,7.105427357601002e-15,58.52,56.63,57.7,57.825,56.63,0.8347155204020105,0.16999999999999935
1 -> 2,0.19849900000000012,0.19849899999999995,0.19849900000000004,0.19849900000000004,0.19849900000000012,7.72682523912663e-17,9.25185853854297e-18,68.17,68.17,68.17,68.17,68.17,0.0,0.0,33.030000000000015,33.02999999999999,33.03000000000001,33.030000000000015,33.030000000000015,1.1783018260144473e-14,7.105427357601002e-15,58.52,56.63,57.7,57.825,56.63,0.8347155204020105,0.16999999999999935
1 -> 2,0.19849900000000012,0.19849899999999995,0.19849900000000004,0.19849900000000004,0.19849900000000012,7.72682523912663e-17,9.25185853854297e-18,68.17,68.17,68.17,68.17,68.17,0.0,0.0,33.030000000000015,33.02999999999999,33.03000000000001,33.030000000000015,33.030000000000015,1.1783018260144473e-14,7.105427357601002e-15,54.57,40.03,47.7675,48.235,40.03,5.457336232082462,-4.846666666666667
1 -> 2,0.19849900000000012,0.19849899999999995,0.19849900000000004,0.19849900000000004,0.19849900000000012,7.72682523912663e-17,9.25185853854297e-18,68.17,68.17,68.17,68.17,68.17,0.0,0.0,33.030000000000015,33.02999999999999,33.03000000000001,33.030000000000015,33.030000000000015,1.1783018260144473e-14,7.105427357601002e-15,54.57,40.03,47.7675,48.235,40.03,5.457336232082462,-4.846666666666667
1 -> 2,0.19977900000000012,0.199779,0.1997790000000001,0.1997790000000001,0.19977900000000012,4.8074067159589095e-17,-1.850371707708594e-17,70.86,70.86,70.86,70.86,70.86,0.0,0.0,33.030000000000015,33.02999999999999,33.03000000000001,33.030000000000015,33.030000000000015,1.1783018260144473e-14,7.105427357601002e-15,34.54,27.37,29.9825,29.009999999999998,27.37,2.848871487098005,-2.3899999999999992
1 -> 2,0.19977900000000012,0.199779,0.1997790000000001,0.1997790000000001,0.19977900000000012,4.8074067159589095e-17,-1.850371707708594e-17,70.86,70.86,70.86,70.86,70.86,0.0,0.0,33.030000000000015,33.02999999999999,33.03000000000001,33.030000000000015,33.030000000000015,1.1783018260144473e-14,7.105427357601002e-15,34.54,27.37,29.9825,29.009999999999998,27.37,2.848871487098005,-2.3899999999999992
1 -> 2,0.19977900000000012,0.199779,0.1997790000000001,0.1997790000000001,0.19977900000000012,4.8074067159589095e-17,-1.850371707708594e-17,70.86,70.86,70.86,70.86,70.86,0.0,0.0,33.030000000000015,33.02999999999999,33.03000000000001,33.030000000000015,33.030000000000015,1.1783018260144473e-14,7.105427357601002e-15,37.36,28.62,32.7325,32.475,28.62,3.276014155952321,2.9133333333333327
1 -> 2,0.19977900000000012,0.199779,0.1997790000000001,0.1997790000000001,0.19977900000000012,4.8074067159589095e-17,-1.850371707708594e-17,70.86,70.86,70.86,70.86,70.86,0.0,0.0,33.030000000000015,33.02999999999999,33.03000000000001,33.030000000000015,33.030000000000015,1.1783018260144473e-14,7.105427357601002e-15,37.36,28.62,32.7325,32.475,28.62,3.276014155952321,2.9133333333333327
1 -> 2,0.19977900000000012,0.199779,0.1997790000000001,0.1997790000000001,0.19977900000000012,4.8074067159589095e-17,-1.850371707708594e-17,70.86,70.86,70.86,70.86,70.86,0.0,0.0,33.030000000000015,33.02999999999999,33.03000000000001,33.030000000000015,33.030000000000015,1.1783018260144473e-14,7.105427357601002e-15,54.32,41.12,47.6225,47.525000000000006,41.12,4.930468410810479,4.400000000000001
1 -> 2,0.19977900000000012,0.199779,0.1997790000000001,0.1997790000000001,0.19977900000000012,4.8074067159589095e-17,-1.850371707708594e-17,70.86,70.86,70.86,70.86,70.86,0.0,0.0,33.030000000000015,33.02999999999999,33.03000000000001,33.030000000000015,33.030000000000015,1.1783018260144473e-14,7.105427357601002e-15,54.32,41.12,47.6225,47.525000000000006,41.12,4.930468410810479,4.400000000000001
1 -> 2,0.19977900000000012,0.199779,0.1997790000000001,0.1997790000000001,0.19977900000000012,4.8074067159589095e-17,-1.850371707708594e-17,70.86,70.86,70.86,70.86,70.86,0.0,0.0,33.030000000000015,33.02999999999999,33.03000000000001,33.030000000000015,33.030000000000015,1.1783018260144473e-14,7.105427357601002e-15,65.54,58.59,62.69500000000001,63.325,58.59,2.675953101233279,2.3166666666666678
1 -> 2,0.19977900000000012,0.199779,0.1997790000000001,0.1997790000000001,0.19977900000000012,4.8074067159589095e-17,-1.850371707708594e-17,70.86,70.86,70.86,70.86,70.86,0.0,0.0,33.030000000000015,33.02999999999999,33.03000000000001,33.030000000000015,33.030000000000015,1.1783018260144473e-14,7.105427357601002e-15,65.54,58.59,62.69500000000001,63.325,58.59,2.675953101233279,2.3166666666666678
1 -> 2,0.2010600000000001,0.2010599999999999,0.20106000000000002,0.20106000000000002,0.2010600000000001,9.100274040305112e-17,-9.25185853854297e-18,70.86,70.86,70.86,70.86,70.86,0.0,0.0,33.030000000000015,33.02999999999999,33.03000000000001,33.030000000000015,33.030000000000015,1.1783018260144473e-14,7.105427357601002e-15,65.06,58.5,61.915,62.05,58.5,2.4831884745222226,-2.1866666666666674
1 -> 2,0.2010600000000001,0.2010599999999999,0.20106000000000002,0.20106000000000002,0.2010600000000001,9.100274040305112e-17,-9.25185853854297e-18,70.86,70.86,70.86,70.86,70.86,0.0,0.0,33.030000000000015,33.02999999999999,33.03000000000001,33.030000000000015,33.030000000000015,1.1783018260144473e-14,7.105427357601002e-15,65.06,58.5,61.915,62.05,58.5,2.4831884745222226,-2.1866666666666674
1 -> 2,0.2010600000000001,0.2010599999999999,0.20106000000000002,0.20106000000000002,0.2010600000000001,9.100274040305112e-17,-9.25185853854297e-18,70.86,70.86,70.86,70.86,70.86,0.0,0.0,33.030000000000015,33.02999999999999,33.03000000000001,33.030000000000015,33.030000000000015,1.1783018260144473e-14,7.105427357601002e-15,65.57,57.31,60.435,59.43,57.31,3.2497576832742436,2.7533333333333303
1 -> 2,0.2010600000000001,0.2010599999999999,0.20106000000000002,0.20106000000000002,0.2010600000000001,9.100274040305112e-17,-9.25185853854297e-18,70.86,70.86,70.86,70.86,70.86,0.0,0.0,33.030000000000015,33.02999999999999,33.03000000000001,33.030000000000015,33.030000000000015,1.1783018260144473e-14,7.105427357601002e-15,65.57,57.31,60.435,59.43,57.31,3.2497576832742436,2.7533333333333303
1 -> 2,0.2010600000000001,0.2010599999999999,0.20106000000000002,0.20106000000000002,0.2010600000000001,9.100274040305112e-17,-9.25185853854297e-18,70.86,70.86,70.86,70.86,70.86,0.0,0.0,33.030000000000015,33.02999999999999,33.03000000000001,33.030000000000015,33.030000000000015,1.1783018260144473e-14,7.105427357601002e-15,85.38,71.31,78.925,79.505,71.31,5.295906437995292,4.689999999999998
1 -> 2,0.2010600000000001,0.2010599999999999,0.20106000000000002,0.20106000000000002,0.2010600000000001,9.100274040305112e-17,-9.25185853854297e-18,70.86,70.86,70.86,70.86,70.86,0.0,0.0,33.030000000000015,33.02999999999999,33.03000000000001,33.030000000000015,33.030000000000015,1.1783018260144473e-14,7.105427357601002e-15,85.38,71.31,78.925,79.505,71.31,5.295906437995292,4.689999999999998
1 -> 2,0.2010600000000001,0.2010599999999999,0.20106000000000002,0.20106000000000002,0.2010600000000001,9.100274040305112e-17,-9.25185853854297e-18,70.86,70.86,70.86,70.86,70.86,0.0,0.0,33.030000000000015,33.02999999999999,33.03000000000001,33.030000000000015,33.030000000000015,1.1783018260144473e-14,7.105427357601002e-15,87.61,84.46,86.49,86.945,84.46,1.2210036854981252,-0.9266666666666671
1 -> 2,0.2010600000000001,0.2010599999999999,0.20106000000000002,0.20106000000000002,0.2010600000000001,9.100274040305112e-17,-9.25185853854297e-18,70.86,70.86,70.86,70.86,70.86,0.0,0.0,33.030000000000015,33.02999999999999,33.03000000000001,33.030000000000015,33.030000000000015,1.1783018260144473e-14,7.105427357601002e-15,87.61,84.46,86.49,86.945,84.46,1.2210036854981252,-0.9266666666666671
1 -> 2,0.19977900000000012,0.199779,0.1997790000000001,0.1997790000000001,0.19977900000000012,4.8074067159589095e-17,-1.850371707708594e-17,70.86,70.86,70.86,70.86,70.86,0.0,0.0,33.030000000000015,33.02999999999999,33.03000000000001,33.030000000000015,33.030000000000015,1.1783018260144473e-14,7.105427357601002e-15,81.07,64.71,73.32499999999999,73.75999999999999,64.71,6.1222442780405295,-5.453333333333333
1 -> 2,0.19977900000000012,0.199779,0.1997790000000001,0.1997790000000001,0.19977900000000012,4.8074067159589095e-17,-1.850371707708594e-17,70.86,70.86,70.86,70.86,70.86,0.0,0.0,33.030000000000015,33.02999999999999,33.03000000000001,33.030000000000015,33.030000000000015,1.1783018260144473e-14,7.105427357601002e-15,81.07,64.71,73.32499999999999,73.75999999999999,64.71,6.1222442780405295,-5.453333333333333
1 -> 2,0.19977900000000012,0.199779,0.1997790000000001,0.1997790000000001,0.19977900000000012,4.8074067159589095e-17,-1.850371707708594e-17,70.86,70.86,70.86,70.86,70.86,0.0,0.0,33.030000000000015,33.02999999999999,33.03000000000001,33.030000000000015,33.030000000000015,1.1783018260144473e-14,7.105427357601002e-15,58.08,39.78,48.6625,48.394999999999996,39.78,6.835372612374544,-6.099999999999999
1 -> 2,0.19977900000000012,0.199779,0.1997790000000001,0.1997790000000001,0.19977900000000012,4.8074067159589095e-17,-1.850371707708594e-17,70.86,70.86,70.86,70.86,70.86,0.0,0.0,33.030000000000015,33.02999999999999,33.03000000000001,33.030000000000015,33.030000000000015,1.1783018260144473e-14,7.105427357601002e-15,58.08,39.78,48.6625,48.394999999999996,39.78,6.835372612374544,-6.099999999999999
1 -> 2,0.19977900000000012,0.199779,0.1997790000000001,0.1997790000000001,0.19977900000000012,4.8074067159589095e-17,-1.850371707708594e-17,70.86,70.86,70.86,70.86,70.86,0.0,0.0,33.030000000000015,33.02999999999999,33.03000000000001,33.030000000000015,33.030000000000015,1.1783018260144473e-14,7.105427357601002e-15,35.1,26.07,30.21,29.835,26.07,3.379504401535823,-3.0100000000000002
1 -> 2,0.19977900000000012,0.199779,0.1997790000000001,0.1997790000000001,0.19977900000000012,4.8074067159589095e-17,-1.850371707708594e-17,70.86,70.86,70.86,70.86,70.86,0.0,0.0,33.030000000000015,33.02999999999999,33.03000000000001,33.030000000000015,33.030000000000015,1.1783018260144473e-14,7.105427357601002e-15,35.1,26.07,30.21,29.835,26.07,3.379504401535823,-3.0100000000000002
1 -> 2,0.19977900000000012,0.199779,0.1997790000000001,0.1997790000000001,0.19977900000000012,4.8074067159589095e-17,-1.850371707708594e-17,70.86,70.86,70.86,70.86,70.86,0.0,0.0,33.030000000000015,33.02999999999999,33.03000000000001,33.030000000000015,33.030000000000015,1.1783018260144473e-14,7.105427357601002e-15,24.26,19.69,21.990000000000002,22.005000000000003,19.69,1.695184355756034,-1.5233333333333334
1 -> 2,0.19977900000000012,0.199779,0.1997790000000001,0.1997790000000001,0.19977900000000012,4.8074067159589095e-17,-1.850371707708594e-17,70.86,70.86,70.86,70.86,70.86,0.0,0.0,33.030000000000015,33.02999999999999,33.03000000000001,33.030000000000015,33.030000000000015,1.1783018260144473e-14,7.105427357601002e-15,24.26,19.69,21.990000000000002,22.005000000000003,19.69,1.695184355756034,-1.5233333333333334
1 -> 2,0.19977900000000012,0.199779,0.1997790000000001,0.1997790000000001,0.19977900000000012,4.8074067159589095e-17,-1.850371707708594e-17,70.86,70.86,70.86,70.86,70.86,0.0,0.0,33.030000000000015,33.02999999999999,33.03000000000001,33.030000000000015,33.030000000000015,1.1783018260144473e-14,7.105427357601002e-15,17.72,8.8,13.4875,13.715,8.8,3.3384380704155645,-2.9733333333333327
1 -> 2,0.19977900000000012,0.199779,0.1997790000000001,0.1997790000000001,0.19977900000000012,4.8074067159589095e-17,-1.850371707708594e-17,70.86,70.86,70.86,70.86,70.86,0.0,0.0,33.030000000000015,33.02999999999999,33.03000000000001,33.030000000000015,33.030000000000015,1.1783018260144473e-14,7.105427357601002e-15,17.72,8.8,13.4875,13.715,8.8,3.3384380704155645,-2.9733333333333327
1 -> 2,0.19977900000000012,0.199779,0.1997790000000001,0.1997790000000001,0.19977900000000012,4.8074067159589095e-17,-1.850371707708594e-17,70.86,70.86,70.86,70.86,70.86,0.0,0.0,33.030000000000015,33.02999999999999,33.03000000000001,33.030000000000015,33.030000000000015,1.1783018260144473e-14,7.105427357601002e-15,5.28,-5.61,-0.06000000000000005,0.04500000000000004,-5.61,4.048783767997496,-3.6300000000000003
1 -> 2,0.19977900000000012,0.199779,0.1997790000000001,0.1997790000000001,0.19977900000000012,4.8074067159589095e-17,-1.850371707708594e-17,70.86,70.86,70.86,70.86,70.86,0.0,0.0,33.030000000000015,33.02999999999999,33.03000000000001,33.030000000000015,33.030000000000015,1.1783018260144473e-14,7.105427357601002e-15,5.28,-5.61,-0.06000000000000005,0.04500000000000004,-5.61,4.048783767997496,-3.6300000000000003
1 -> 2,0.19977900000000012,0.199779,0.1997790000000001,0.1997790000000001,0.19977900000000012,4.8074067159589095e-17,-1.850371707708594e-17,70.86,70.86,70.86,70.86,70.86,0.0,0.0,33.030000000000015,33.02999999999999,33.03000000000001,33.030000000000015,33.030000000000015,1.1783018260144473e-14,7.105427357601002e-15,-10.14,-27.15,-18.497500000000002,-18.35,-27.15,6.357933528277878,-5.669999999999999
1 -> 2,0.19977900000000012,0.199779,0.1997790000000001,0.1997790000000001,0.19977900000000012,4.8074067159589095e-17,-1.850371707708594e-17,70.86,70.86,70.86,70.86,70.86,0.0,0.0,33.030000000000015,33.02999999999999,33.03000000000001,33.030000000000015,33.030000000000015,1.1783018260144473e-14,7.105427357601002e-15,-10.14,-27.15,-18.497500000000002,-18.35,-27.15,6.357933528277878,-5.669999999999999
1 -> 2,0.19977900000000012,0.199779,0.1997790000000001,0.1997790000000001,0.19977900000000012,4.8074067159589095e-17,-1.850371707708594e-17,70.86,70.86,70.86,70.86,70.86,0.0,0.0,33.030000000000015,33.02999999999999,33.03000000000001,33.030000000000015,33.030000000000015,1.1783018260144473e-14,7.105427357601002e-15,-32.72,-47.95,-40.335,-40.335,-47.95,5.661883520525659,-5.076666666666668
1 -> 2,0.19977900000000012,0.199779,0.1997790000000001,0.1997790000000001,0.19977900000000012,4.8074067159589095e-17,-1.850371707708594e-17,70.86,70.86,70.86,70.86,70.86,0.0,0.0,33.030000000000015,33.02999999999999,33.03000000000001,33.030000000000015,33.030000000000015,1.1783018260144473e-14,7.105427357601002e-15,-32.72,-47.95,-40.335,-40.335,-47.95,5.661883520525659,-5.076666666666668
1 -> 2,0.19977900000000012,0.199779,0.1997790000000001,0.1997790000000001,0.19977900000000012,4.8074067159589095e-17,-1.850371707708594e-17,73.0,73.0,73.0,73.0,73.0,0.0,0.0,33.05000000000001,33.05,33.050000000000004,33.05000000000001,33.05000000000001,6.153480596427404e-15,2.3684757858670005e-15,-53.58,-69.37,-61.905,-62.335,-69.37,5.940069444038515,-5.263333333333335
1 -> 2,0.19977900000000012,0.199779,0.1997790000000001,0.1997790000000001,0.19977900000000012,4.8074067159589095e-17,-1.850371707708594e-17,73.0,73.0,73.0,73.0,73.0,0.0,0.0,33.05000000000001,33.05,33.050000000000004,33.05000000000001,33.05000000000001,6.153480596427404e-15,2.3684757858670005e-15,-53.58,-69.37,-61.905,-62.335,-69.37,5.940069444038515,-5.263333333333335
1 -> 2,0.19977900000000012,0.199779,0.1997790000000001,0.1997790000000001,0.19977900000000012,4.8074067159589095e-17,-1.850371707708594e-17,73.0,73.0,73.0,73.0,73.0,0.0,0.0,33.05000000000001,33.05,33.050000000000004,33.05000000000001,33.05000000000001,6.153480596427404e-15,2.3684757858670005e-15,-56.61,-71.16,-65.565,-67.245,-71.16,5.687532417490031,4.849999999999999
1 -> 2,0.19977900000000012,0.199779,0.1997790000000001,0.1997790000000001,0.19977900000000012,4.8074067159589095e-17,-1.850371707708594e-17,73.0,73.0,73.0,73.0,73.0,0.0,0.0,33.05000000000001,33.05,33.050000000000004,33.05000000000001,33.05000000000001,6.153480596427404e-15,2.3684757858670005e-15,-56.61,-71.16,-65.565,-67.245,-71.16,5.687532417490031,4.849999999999999
1 -> 2,0.19977900000000012,0.199779,0.1997790000000001,0.1997790000000001,0.19977900000000012,4.8074067159589095e-17,-1.850371707708594e-17,73.0,73.0,73.0,73.0,73.0,0.0,0.0,33.05000000000001,33.05,33.050000000000004,33.05000000000001,33.05000000000001,6.153480596427404e-15,2.3684757858670005e-15,-11.04,-46.03,-28.3275,-28.12,-46.03,13.082072418007785,11.663333333333334
1 -> 2,0.19977900000000012,0.199779,0.1997790000000001,0.1997790000000001,0.19977900000000012,4.8074067159589095e-17,-1.850371707708594e-17,73.0,73.0,73.0,73.0,73.0,0.0,0.0,33.05000000000001,33.05,33.050000000000004,33.05000000000001,33.05000000000001,6.153480596427404e-15,2.3684757858670005e-15,-11.04,-46.03,-28.3275,-28.12,-46.03,13.082072418007785,11.663333333333334
1 -> 2,0.19977900000000012,0.199779,0.1997790000000001,0.1997790000000001,0.19977900000000012,4.8074067159589095e-17,-1.850371707708594e-17,73.0,73.0,73.0,73.0,73.0,0.0,0.0,33.05000000000001,33.05,33.050000000000004,33.05000000000001,33.05000000000001,6.153480596427404e-15,2.3684757858670005e-15,13.53,-1.75,6.84,7.79,-1.75,5.754398317808735,5.093333333333333
1 -> 2,0.19977900000000012,0.199779,0.1997790000000001,0.1997790000000001,0.19977900000000012,4.8074067159589095e-17,-1.850371707708594e-17,73.0,73.0,73.0,73.0,73.0,0.0,0.0,33.05000000000001,33.05,33.050000000000004,33.05000000000001,33.05000000000001,6.153480596427404e-15,2.3684757858670005e-15,13.53,-1.75,6.84,7.79,-1.75,5.754398317808735,5.093333333333333
1 -> 2,0.2023410000000001,0.202341,0.20234100000000008,0.2023410000000001,0.2023410000000001,4.8074067159589095e-17,3.700743415417188e-17,73.0,73.0,73.0,73.0,73.0,0.0,0.0,33.05000000000001,33.05,33.050000000000004,33.05000000000001,33.05000000000001,6.153480596427404e-15,2.3684757858670005e-15,26.39,15.98,20.695,20.205,15.98,3.8972971403268697,3.47
1 -> 2,0.2023410000000001,0.202341,0.20234100000000008,0.2023410000000001,0.2023410000000001,4.8074067159589095e-17,3.700743415417188e-17,73.0,73.0,73.0,73.0,73.0,0.0,0.0,33.05000000000001,33.05,33.050000000000004,33.05000000000001,33.05000000000001,6.153480596427404e-15,2.3684757858670005e-15,26.39,15.98,20.695,20.205,15.98,3.8972971403268697,3.47
1 -> 2,0.2023410000000001,0.202341,0.20234100000000008,0.2023410000000001,0.2023410000000001,4.8074067159589095e-17,3.700743415417188e-17,73.0,73.0,73.0,73.0,73.0,0.0,0.0,33.05000000000001,33.05,33.050000000000004,33.05000000000001,33.05000000000001,6.153480596427404e-15,2.3684757858670005e-15,48.96,31.9,40.655,40.879999999999995,31.9,6.3861040548992,5.686666666666667
1 -> 2,0.2023410000000001,0.202341,0.20234100000000008,0.2023410000000001,0.2023410000000001,4.8074067159589095e-17,3.700743415417188e-17,73.0,73.0,73.0,73.0,73.0,0.0,0.0,33.05000000000001,33.05,33.050000000000004,33.05000000000001,33.05000000000001,6.153480596427404e-15,2.3684757858670005e-15,48.96,31.9,40.655,40.879999999999995,31.9,6.3861040548992,5.686666666666667
1 -> 2,0.2023410000000001,0.202341,0.20234100000000008,0.2023410000000001,0.2023410000000001,4.8074067159589095e-17,3.700743415417188e-17,73.0,73.0,73.0,73.0,73.0,0.0,0.0,33.05000000000001,33.05,33.050000000000004,33.05000000000001,33.05000000000001,6.153480596427404e-15,2.3684757858670005e-15,54.98,52.47,53.8075,53.89,52.47,1.1690888546214095,-0.11666666666666714
1 -> 2,0.2023410000000001,0.202341,0.20234100000000008,0.2023410000000001,0.2023410000000001,4.8074067159589095e-17,3.700743415417188e-17,73.0,73.0,73.0,73.0,73.0,0.0,0.0,33.05000000000001,33.05,33.050000000000004,33.05000000000001,33.05000000000001,6.153480596427404e-15,2.3684757858670005e-15,54.98,52.47,53.8075,53.89,52.47,1.1690888546214095,-0.11666666666666714
1 -> 2,0.2023410000000001,0.202341,0.20234100000000008,0.2023410000000001,0.2023410000000001,4.8074067159589095e-17,3.700743415417188e-17,73.0,73.0,73.0,73.0,73.0,0.0,0.0,33.05000000000001,33.05,33.050000000000004,33.05000000000001,33.05000000000001,6.153480596427404e-15,2.3684757858670005e-15,47.16,17.93,33.3325,34.120000000000005,17.93,10.96223146763468,-9.743333333333332
1 -> 2,0.2023410000000001,0.202341,0.20234100000000008,0.2023410000000001,0.2023410000000001,4.8074067159589095e-17,3.700743415417188e-17,73.0,73.0,73.0,73.0,73.0,0.0,0.0,33.05000000000001,33.05,33.050000000000004,33.05000000000001,33.05000000000001,6.153480596427404e-15,2.3684757858670005e-15,47.16,17.93,33.3325,34.120000000000005,17.93,10.96223146763468,-9.743333333333332
1 -> 2,0.2010600000000001,0.2010599999999999,0.20106000000000002,0.20106000000000002,0.2010600000000001,9.100274040305112e-17,-9.25185853854297e-18,73.0,73.0,73.0,73.0,73.0,0.0,0.0,33.05000000000001,33.05,33.050000000000004,33.05000000000001,33.05000000000001,6.153480596427404e-15,2.3684757858670005e-15,6.99,-16.39,-5.6375,-6.575,-16.39,8.765356167891868,-7.793333333333333
1 -> 2,0.2010600000000001,0.2010599999999999,0.20106000000000002,0.20106000000000002,0.2010600000000001,9.100274040305112e-17,-9.25185853854297e-18,73.0,73.0,73.0,73.0,73.0,0.0,0.0,33.05000000000001,33.05,33.050000000000004,33.05000000000001,33.05000000000001,6.153480596427404e-15,2.3684757858670005e-15,6.99,-16.39,-5.6375,-6.575,-16.39,8.765356167891868,-7.793333333333333
1 -> 2,0.2010600000000001,0.2010599999999999,0.20106000000000002,0.20106000000000002,0.2010600000000001,9.100274040305112e-17,-9.25185853854297e-18,73.0,73.0,73.0,73.0,73.0,0.0,0.0,33.05000000000001,33.05,33.050000000000004,33.05000000000001,33.05000000000001,6.153480596427404e-15,2.3684757858670005e-15,-20.68,-25.47,-23.759999999999998,-24.445,-25.47,1.9176939276120157,-1.5966666666666665
1 -> 2,0.2010600000000001,0.2010599999999999,0.20106000000000002,0.20106000000000002,0.2010600000000001,9.100274040305112e-17,-9.25185853854297e-18,73.0,73.0,73.0,73.0,73.0,0.0,0.0,33.05000000000001,33.05,33.050000000000004,33.05000000000001,33.05000000000001,6.153480596427404e-15,2.3684757858670005e-15,-20.68,-25.47,-23.759999999999998,-24.445,-25.47,1.9176939276120157,-1.5966666666666665
1 -> 2,0.2010600000000001,0.2010599999999999,0.20106000000000002,0.20106000000000002,0.2010600000000001,9.100274040305112e-17,-9.25185853854297e-18,73.0,73.0,73.0,73.0,73.0,0.0,0.0,33.05000000000001,33.05,33.050000000000004,33.05000000000001,33.05000000000001,6.153480596427404e-15,2.3684757858670005e-15,-16.66,-24.19,-20.38,-20.335,-24.19,2.84442437058889,2.5100000000000002
1 -> 2,0.2010600000000001,0.2010599999999999,0.20106000000000002,0.20106000000000002,0.2010600000000001,9.100274040305112e-17,-9.25185853854297e-18,73.0,73.0,73.0,73.0,73.0,0.0,0.0,33.05000000000001,33.05,33.050000000000004,33.05000000000001,33.05000000000001,6.153480596427404e-15,2.3684757858670005e-15,-16.66,-24.19,-20.38,-20.335,-24.19,2.84442437058889,2.5100000000000002
1 -> 2,0.2010600000000001,0.2010599999999999,0.20106000000000002,0.20106000000000002,0.2010600000000001,9.100274040305112e-17,-9.25185853854297e-18,73.0,73.0,73.0,73.0,73.0,0.0,0.0,33.05000000000001,33.05,33.050000000000004,33.05000000000001,33.05000000000001,6.153480596427404e-15,2.3684757858670005e-15,-15.73,-19.4,-17.299999999999997,-17.035,-19.4,1.4305418553820781,-1.2233333333333327
1 -> 2,0.2010600000000001,0.2010599999999999,0.20106000000000002,0.20106000000000002,0.2010600000000001,9.100274040305112e-17,-9.25185853854297e-18,73.0,73.0,73.0,73.0,73.0,0.0,0.0,33.05000000000001,33.05,33.050000000000004,33.05000000000001,33.05000000000001,6.153480596427404e-15,2.3684757858670005e-15,-15.73,-19.4,-17.299999999999997,-17.035,-19.4,1.4305418553820781,-1.2233333333333327
1 -> 2,0.2023410000000001,0.202341,0.20234100000000008,0.2023410000000001,0.2023410000000001,4.8074067159589095e-17,3.700743415417188e-17,73.0,73.0,73.0,73.0,73.0,0.0,0.0,33.05000000000001,33.05,33.050000000000004,33.05000000000001,33.05000000000001,6.153480596427404e-15,2.3684757858670005e-15,-12.66,-20.13,-17.252499999999998,-18.11,-20.13,2.914046799555559,2.4899999999999998
1 -> 2,0.2023410000000001,0.202341,0.20234100000000008,0.2023410000000001,0.2023410000000001,4.8074067159589095e-17,3.700743415417188e-17,73.0,73.0,73.0,73.0,73.0,0.0,0.0,33.05000000000001,33.05,33.050000000000004,33.05000000000001,33.05000000000001,6.153480596427404e-15,2.3684757858670005e-15,-12.66,-20.13,-17.252499999999998,-18.11,-20.13,2.914046799555559,2.4899999999999998
1 -> 2,0.2023410000000001,0.202341,0.20234100000000008,0.2023410000000001,0.2023410000000001,4.8074067159589095e-17,3.700743415417188e-17,73.0,73.0,73.0,73.0,73.0,0.0,0.0,33.05000000000001,33.05,33.050000000000004,33.05000000000001,33.05000000000001,6.153480596427404e-15,2.3684757858670005e-15,17.83,-6.94,4.8725,4.300000000000001,-6.94,9.256061189836636,8.256666666666666
1 -> 2,0.2023410000000001,0.202341,0.20234100000000008,0.2023410000000001,0.2023410000000001,4.8074067159589095e-17,3.700743415417188e-17,73.0,73.0,73.0,73.0,73.0,0.0,0.0,33.05000000000001,33.05,33.050000000000004,33.05000000000001,33.05000000000001,6.153480596427404e-15,2.3684757858670005e-15,17.83,-6.94,4.8725,4.300000000000001,-6.94,9.256061189836636,8.256666666666666
1 -> 2,0.2023410000000001,0.202341,0.20234100000000008,0.2023410000000001,0.2023410000000001,4.8074067159589095e-17,3.700743415417188e-17,73.0,73.0,73.0,73.0,73.0,0.0,0.0,33.05000000000001,33.05,33.050000000000004,33.05000000000001,33.05000000000001,6.153480596427404e-15,2.3684757858670005e-15,58.69,27.96,43.475,43.625,27.96,11.46761636086593,10.243333333333332
1 -> 2,0.2023410000000001,0.202341,0.20234100000000008,0.2023410000000001,0.2023410000000001,4.8074067159589095e-17,3.700743415417188e-17,73.0,73.0,73.0,73.0,73.0,0.0,0.0,33.05000000000001,33.05,33.050000000000004,33.05000000000001,33.05000000000001,6.153480596427404e-15,2.3684757858670005e-15,58.69,27.96,43.475,43.625,27.96,11.46761636086593,10.243333333333332
1 -> 2,0.2023410000000001,0.202341,0.20234100000000008,0.2023410000000001,0.2023410000000001,4.8074067159589095e-17,3.700743415417188e-17,73.0,73.0,73.0,73.0,73.0,0.0,0.0,33.05000000000001,33.05,33.050000000000004,33.05000000000001,33.05000000000001,6.153480596427404e-15,2.3684757858670005e-15,88.52,67.75,78.7025,79.27000000000001,67.75,7.760925766298759,6.923333333333332
1 -> 2,0.2023410000000001,0.202341,0.20234100000000008,0.2023410000000001,0.2023410000000001,4.8074067159589095e-17,3.700743415417188e-17,73.0,73.0,73.0,73.0,73.0,0.0,0.0,33.05000000000001,33.05,33.050000000000004,33.05000000000001,33.05000000000001,6.153480596427404e-15,2.3684757858670005e-15,88.52,67.75,78.7025,79.27000000000001,67.75,7.760925766298759,6.923333333333332
1 -> 2,0.2010600000000001,0.2010599999999999,0.20106000000000002,0.20106000000000002,0.2010600000000001,9.100274040305112e-17,-9.25185853854297e-18,74.56,74.56,74.56,74.56,74.56,0.0,0.0,33.05000000000001,33.05,33.050000000000004,33.05000000000001,33.05000000000001,6.153480596427404e-15,2.3684757858670005e-15,104.6,93.3,99.0675,99.185,93.3,4.202221882528336,3.7666666666666657
1 -> 2,0.2010600000000001,0.2010599999999999,0.20106000000000002,0.20106000000000002,0.2010600000000001,9.100274040305112e-17,-9.25185853854297e-18,74.56,74.56,74.56,74.56,74.56,0.0,0.0,33.05000000000001,33.05,33.050000000000004,33.05000000000001,33.05000000000001,6.153480596427404e-15,2.3684757858670005e-15,104.6,93.3,99.0675,99.185,93.3,4.202221882528336,3.7666666666666657
1 -> 2,0.2010600000000001,0.2010599999999999,0.20106000000000002,0.20106000000000002,0.2010600000000001,9.100274040305112e-17,-9.25185853854297e-18,74.56,74.56,74.56,74.56,74.56,0.0,0.0,33.05000000000001,33.05,33.050000000000004,33.05000000000001,33.05000000000001,6.153480596427404e-15,2.3684757858670005e-15,118.59,108.23,113.54249999999999,113.675,108.23,3.871868896282517,3.453333333333333
1 -> 2,0.2010600000000001,0.2010599999999999,0.20106000000000002,0.20106000000000002,0.2010600000000001,9.100274040305112e-17,-9.25185853854297e-18,74.56,74.56,74.56,74.56,74.56,0.0,0.0,33.05000000000001,33.05,33.050000000000004,33.05000000000001,33.05000000000001,6.153480596427404e-15,2.3684757858670005e-15,118.59,108.23,113.54249999999999,113.675,108.23,3.871868896282517,3.453333333333333
1 -> 2,0.2010600000000001,0.2010599999999999,0.20106000000000002,0.20106000000000002,0.2010600000000001,9.100274040305112e-17,-9.25185853854297e-18,74.56,74.56,74.56,74.56,74.56,0.0,0.0,33.05000000000001,33.05,33.050000000000004,33.05000000000001,33.05000000000001,6.153480596427404e-15,2.3684757858670005e-15,122.32,119.02,121.05749999999999,121.445,119.02,1.265590277301466,-0.6666666666666666
1 -> 2,0.2010600000000001,0.2010599999999999,0.20106000000000002,0.20106000000000002,0.2010600000000001,9.100274040305112e-17,-9.25185853854297e-18,74.56,74.56,74.56,74.56,74.56,0.0,0.0,33.05000000000001,33.05,33.050000000000004,33.05000000000001,33.05000000000001,6.153480596427404e-15,2.3684757858670005e-15,122.32,119.02,121.05749999999999,121.445,119.02,1.265590277301466,-0.6666666666666666
1 -> 2,0.2010600000000001,0.2010599999999999,0.20106000000000002,0.20106000000000002,0.2010600000000001,9.100274040305112e-17,-9.25185853854297e-18,74.56,74.56,74.56,74.56,74.56,0.0,0.0,33.05000000000001,33.05,33.050000000000004,33.05000000000001,33.05000000000001,6.153480596427404e-15,2.3684757858670005e-15,113.27,80.27,97.82249999999999,98.875,80.27,12.376015867394482,-11.0
1 -> 2,0.2010600000000001,0.2010599999999999,0.20106000000000002,0.20106000000000002,0.2010600000000001,9.100274040305112e-17,-9.25185853854297e-18,74.56,74.56,74.56,74.56,74.56,0.0,0.0,33.05000000000001,33.05,33.050000000000004,33.05000000000001,33.05000000000001,6.153480596427404e-15,2.3684757858670005e-15,113.27,80.27,97.82249999999999,98.875,80.27,12.376015867394482,-11.0
1 -> 2,0.2036210000000001,0.20362099999999997,0.20362100000000002,0.20362100000000005,0.2036210000000001,6.655553224256149e-17,-9.25185853854297e-18,74.56,74.56,74.56,74.56,74.56,0.0,0.0,33.05000000000001,33.05,33.050000000000004,33.05000000000001,33.05000000000001,6.153480596427404e-15,2.3684757858670005e-15,66.57,25.59,46.0325,45.985,25.59,15.269067383111514,-13.659999999999997
1 -> 2,0.2036210000000001,0.20362099999999997,0.20362100000000002,0.20362100000000005,0.2036210000000001,6.655553224256149e-17,-9.25185853854297e-18,74.56,74.56,74.56,74.56,74.56,0.0,0.0,33.05000000000001,33.05,33.050000000000004,33.05000000000001,33.05000000000001,6.153480596427404e-15,2.3684757858670005e-15,66.57,25.59,46.0325,45.985,25.59,15.269067383111514,-13.659999999999997
1 -> 2,0.2036210000000001,0.20362099999999997,0.20362100000000002,0.20362100000000005,0.2036210000000001,6.655553224256149e-17,-9.25185853854297e-18,74.56,74.56,74.56,74.56,74.56,0.0,0.0,33.05000000000001,33.05,33.050000000000004,33.05000000000001,33.05000000000001,6.153480596427404e-15,2.3684757858670005e-15,11.96,-25.15,-7.2025,-7.8100000000000005,-25.15,13.873869999030552,-12.37
1 -> 2,0.2036210000000001,0.20362099999999997,0.20362100000000002,0.20362100000000005,0.2036210000000001,6.655553224256149e-17,-9.25185853854297e-18,74.56,74.56,74.56,74.56,74.56,0.0,0.0,33.05000000000001,33.05,33.050000000000004,33.05000000000001,33.05000000000001,6.153480596427404e-15,2.3684757858670005e-15,11.96,-25.15,-7.2025,-7.8100000000000005,-25.15,13.873869999030552,-12.37
1 -> 2,0.2036210000000001,0.20362099999999997,0.20362100000000002,0.20362100000000005,0.2036210000000001,6.655553224256149e-17,-9.25185853854297e-18,74.56,74.56,74.56,74.56,74.56,0.0,0.0,33.05000000000001,33.05,33.050000000000004,33.05000000000001,33.05000000000001,6.153480596427404e-15,2.3684757858670005e-15,-33.95,-49.97,-42.4875,-43.015,-49.97,5.955738304358241,-5.339999999999999
1 -> 2,0.2036210000000001,0.20362099999999997,0.20362100000000002,0.20362100000000005,0.2036210000000001,6.655553224256149e-17,-9.25185853854297e-18,74.56,74.56,74.56,74.56,74.56,0.0,0.0,33.05000000000001,33.05,33.050000000000004,33.05000000000001,33.05000000000001,6.153480596427404e-15,2.3684757858670005e-15,-33.95,-49.97,-42.4875,-43.015,-49.97,5.955738304358241,-5.339999999999999
1 -> 2,0.2036210000000001,0.20362099999999997,0.20362100000000002,0.20362100000000005,0.2036210000000001,6.655553224256149e-17,-9.25185853854297e-18,74.56,74.56,74.56,74.56,74.56,0.0,0.0,33.05000000000001,33.05,33.050000000000004,33.05000000000001,33.05000000000001,6.153480596427404e-15,2.3684757858670005e-15,-54.84,-72.97,-63.805,-63.705,-72.97,6.785471612202056,-6.043333333333332
1 -> 2,0.2036210000000001,0.20362099999999997,0.20362100000000002,0.20362100000000005,0.2036210000000001,6.655553224256149e-17,-9.25185853854297e-18,74.56,74.56,74.56,74.56,74.56,0.0,0.0,33.05000000000001,33.05,33.050000000000004,33.05000000000001,33.05000000000001,6.153480596427404e-15,2.3684757858670005e-15,-54.84,-72.97,-63.805,-63.705,-72.97,6.785471612202056,-6.043333333333332
1 -> 2,0.2023410000000001,0.202341,0.20234100000000008,0.2023410000000001,0.2023410000000001,4.8074067159589095e-17,3.700743415417188e-17,74.56,74.56,74.56,74.56,74.56,0.0,0.0,33.05000000000001,33.05,33.050000000000004,33.05000000000001,33.05000000000001,6.153480596427404e-15,2.3684757858670005e-15,-78.11,-84.84,-82.155,-82.83500000000001,-84.84,2.588788326611506,-2.2433333333333345
1 -> 2,0.2023410000000001,0.202341,0.20234100000000008,0.2023410000000001,0.2023410000000001,4.8074067159589095e-17,3.700743415417188e-17,74.56,74.56,74.56,74.56,74.56,0.0,0.0,33.05000000000001,33.05,33.050000000000004,33.05000000000001,33.05000000000001,6.153480596427404e-15,2.3684757858670005e-15,-78.11,-84.84,-82.155,-82.83500000000001,-84.84,2.588788326611506,-2.2433333333333345
1 -> 2,0.2023410000000001,0.202341,0.20234100000000008,0.2023410000000001,0.2023410000000001,4.8074067159589095e-17,3.700743415417188e-17,74.56,74.56,74.56,74.56,74.56,0.0,0.0,33.05000000000001,33.05,33.050000000000004,33.05000000000001,33.05000000000001,6.153480596427404e-15,2.3684757858670005e-15,-78.98,-84.88,-82.515,-83.1,-84.88,2.2681986244595036,1.966666666666664
1 -> 2,0.2023410000000001,0.202341,0.20234100000000008,0.2023410000000001,0.2023410000000001,4.8074067159589095e-17,3.700743415417188e-17,74.56,74.56,74.56,74.56,74.56,0.0,0.0,33.05000000000001,33.05,33.050000000000004,33.05000000000001,33.05000000000001,6.153480596427404e-15,2.3684757858670005e-15,-78.98,-84.88,-82.515,-83.1,-84.88,2.2681986244595036,1.966666666666664
1 -> 2,0.2023410000000001,0.202341,0.20234100000000008,0.2023410000000001,0.2023410000000001,4.8074067159589095e-17,3.700743415417188e-17,74.56,74.56,74.56,74.56,74.56,0.0,0.0,33.05000000000001,33.05,33.050000000000004,33.05000000000001,33.05000000000001,6.153480596427404e-15,2.3684757858670005e-15,-62.27,-74.67,-68.0275,-67.58500000000001,-74.67,4.678794583009602,4.133333333333333
1 -> 2,0.2023410000000001,0.202341,0.20234100000000008,0.2023410000000001,0.2023410000000001,4.8074067159589095e-17,3.700743415417188e-17,74.56,74.56,74.56,74.56,74.56,0.0,0.0,33.05000000000001,33.05,33.050000000000004,33.05000000000001,33.05000000000001,6.153480596427404e-15,2.3684757858670005e-15,-62.27,-74.67,-68.0275,-67.58500000000001,-74.67,4.678794583009602,4.133333333333333
1 -> 2,0.2023410000000001,0.202341,0.20234100000000008,0.2023410000000001,0.2023410000000001,4.8074067159589095e-17,3.700743415417188e-17,74.56,74.56,74.56,74.56,74.56,0.0,0.0,33.05000000000001,33.05,33.050000000000004,33.05000000000001,33.05000000000001,6.153480596427404e-15,2.3684757858670005e-15,-61.07,-66.44,-63.239999999999995,-62.724999999999994,-66.44,2.091614209169558,-1.7899999999999991
1 -> 2,0.2023410000000001,0.202341,0.20234100000000008,0.2023410000000001,0.2023410000000001,4.8074067159589095e-17,3.700743415417188e-17,74.56,74.56,74.56,74.56,74.56,0.0,0.0,33.05000000000001,33.05,33.050000000000004,33.05000000000001,33.05000000000001,6.153480596427404e-15,2.3684757858670005e-15,-61.07,-66.44,-63.239999999999995,-62.724999999999994,-66.44,2.091614209169558,-1.7899999999999991
1 -> 2,0.2023410000000001,0.202341,0.20234100000000008,0.2023410000000001,0.2023410000000001,4.8074067159589095e-17,3.700743415417188e-17,74.56,74.56,74.56,74.56,74.56,0.0,0.0,33.05000000000001,33.05,33.050000000000004,33.05000000000001,33.05000000000001,6.153480596427404e-15,2.3684757858670005e-15,-69.31,-75.35,-72.6975,-73.065,-75.35,2.298666733130314,-2.0133333333333305
1 -> 2,0.2023410000000001,0.202341,0.20234100000000008,0.2023410000000001,0.2023410000000001,4.8074067159589095e-17,3.700743415417188e-17,74.56,74.56,74.56,74.56,74.56,0.0,0.0,33.05000000000001,33.05,33.050000000000004,33.05000000000001,33.05000000000001,6.153480596427404e-15,2.3684757858670005e-15,-69.31,-75.35,-72.6975,-73.065,-75.35,2.298666733130314,-2.0133333333333305
1 -> 2,0.2023410000000001,0.202341,0.20234100000000008,0.2023410000000001,0.2023410000000001,4.8074067159589095e-17,3.700743415417188e-17,74.56,74.56,74.56,74.56,74.56,0.0,0.0,33.05000000000001,33.05,33.050000000000004,33.05000000000001,33.05000000000001,6.153480596427404e-15,2.3684757858670005e-15,-59.58,-74.97,-68.515,-69.755,-74.97,5.874617008792999,5.13
1 -> 2,0.2023410000000001,0.202341,0.20234100000000008,0.2023410000000001,0.2023410000000001,4.8074067159589095e-17,3.700743415417188e-17,74.56,74.56,74.56,74.56,74.56,0.0,0.0,33.05000000000001,33.05,33.050000000000004,33.05000000000001,33.05000000000001,6.153480596427404e-15,2.3684757858670005e-15,-59.58,-74.97,-68.515,-69.755,-74.97,5.874617008792999,5.13
1 -> 2,0.2023410000000001,0.202341,0.20234100000000008,0.2023410000000001,0.2023410000000001,4.8074067159589095e-17,3.700743415417188e-17,74.56,74.56,74.56,74.56,74.56,0.0,0.0,33.05000000000001,33.05,33.050000000000004,33.05000000000001,33.05000000000001,6.153480596427404e-15,2.3684757858670005e-15,-23.38,-50.4,-36.485,-36.08,-50.4,10.101986190843858,9.006666666666666
1 -> 2,0.2023410000000001,0.202341,0.20234100000000008,0.2023410000000001,0.2023410000000001,4.8074067159589095e-17,3.700743415417188e-17,74.56,74.56,74.56,74.56,74.56,0.0,0.0,33.05000000000001,33.05,33.050000000000004,33.05000000000001,33.05000000000001,6.153480596427404e-15,2.3684757858670005e-15,-23.38,-50.4,-36.485,-36.08,-50.4,10.101986190843858,9.006666666666666
1 -> 2,0.2023410000000001,0.202341,0.20234100000000008,0.2023410000000001,0.2023410000000001,4.8074067159589095e-17,3.700743415417188e-17,74.56,74.56,74.56,74.56,74.56,0.0,0.0,33.05000000000001,33.05,33.050000000000004,33.05000000000001,33.05000000000001,6.153480596427404e-15,2.3684757858670005e-15,-2.13,-16.57,-8.955,-8.56,-16.57,5.387826556228402,4.8133333333333335
1 -> 2,0.2023410000000001,0.202341,0.20234100000000008,0.2023410000000001,0.2023410000000001,4.8074067159589095e-17,3.700743415417188e-17,74.56,74.56,74.56,74.56,74.56,0.0,0.0,33.05000000000001,33.05,33.050000000000004,33.05000000000001,33.05000000000001,6.153480596427404e-15,2.3684757858670005e-15,-2.13,-16.57,-8.955,-8.56,-16.57,5.387826556228402,4.8133333333333335
1 -> 2,0.2023410000000001,0.202341,0.20234100000000008,0.2023410000000001,0.2023410000000001,4.8074067159589095e-17,3.700743415417188e-17,75.6,75.6,75.6,75.6,75.6,0.0,0.0,33.030000000000015,33.02999999999999,33.03000000000001,33.030000000000015,33.030000000000015,1.1783018260144473e-14,7.105427357601002e-15,10.4,1.39,5.9425,5.99,1.39,3.3511518542137124,3.003333333333334
1 -> 2,0.2023410000000001,0.202341,0.20234100000000008,0.2023410000000001,0.2023410000000001,4.8074067159589095e-17,3.700743415417188e-17,75.6,75.6,75.6,75.6,75.6,0.0,0.0,33.030000000000015,33.02999999999999,33.03000000000001,33.030000000000015,33.030000000000015,1.1783018260144473e-14,7.105427357601002e-15,10.4,1.39,5.9425,5.99,1.39,3.3511518542137124,3.003333333333334
1 -> 2,0.2023410000000001,0.202341,0.20234100000000008,0.2023410000000001,0.2023410000000001,4.8074067159589095e-17,3.700743415417188e-17,75.6,75.6,75.6,75.6,75.6,0.0,0.0,33.030000000000015,33.02999999999999,33.03000000000001,33.030000000000015,33.030000000000015,1.1783018260144473e-14,7.105427357601002e-15,22.09,13.45,17.9125,18.055,13.45,3.2332829678207875,2.8800000000000003
1 -> 2,0.2023410000000001,0.202341,0.20234100000000008,0.2023410000000001,0.2023410000000001,4.8074067159589095e-17,3.700743415417188e-17,75.6,75.6,75.6,75.6,75.6,0.0,0.0,33.030000000000015,33.02999999999999,33.03000000000001,33.030000000000015,33.030000000000015,1.1783018260144473e-14,7.105427357601002e-15,22.09,13.45,17.9125,18.055,13.45,3.2332829678207875,2.8800000000000003
1 -> 2,0.2023410000000001,0.202341,0.20234100000000008,0.2023410000000001,0.2023410000000001,4.8074067159589095e-17,3.700743415417188e-17,75.6,75.6,75.6,75.6,75.6,0.0,0.0,33.030000000000015,33.02999999999999,33.03000000000001,33.030000000000015,33.030000000000015,1.1783018260144473e-14,7.105427357601002e-15,25.83,24.02,25.215,25.505000000000003,24.02,0.7289890259805013,0.6033333333333329
1 -> 2,0.2023410000000001,0.202341,0.20234100000000008,0.2023410000000001,0.2023410000000001,4.8074067159589095e-17,3.700743415417188e-17,75.6,75.6,75.6,75.6,75.6,0.0,0.0,33.030000000000015,33.02999999999999,33.03000000000001,33.030000000000015,33.030000000000015,1.1783018260144473e-14,7.105427357601002e-15,25.83,24.02,25.215,25.505000000000003,24.02,0.7289890259805013,0.6033333333333329
1 -> 2,0.2023410000000001,0.202341,0.20234100000000008,0.2023410000000001,0.2023410000000001,4.8074067159589095e-17,3.700743415417188e-17,75.6,75.6,75.6,75.6,75.6,0.0,0.0,33.030000000000015,33.02999999999999,33.03000000000001,33.030000000000015,33.030000000000015,1.1783018260144473e-14,7.105427357601002e-15,25.53,23.59,24.6275,24.695,23.59,0.7265113557268051,-0.6466666666666671
1 -> 2,0.2023410000000001,0.202341,0.20234100000000008,0.2023410000000001,0.2023410000000001,4.8074067159589095e-17,3.700743415417188e-17,75.6,75.6,75.6,75.6,75.6,0.0,0.0,33.030000000000015,33.02999999999999,33.03000000000001,33.030000000000015,33.030000000000015,1.1783018260144473e-14,7.105427357601002e-15,25.53,23.59,24.6275,24.695,23.59,0.7265113557268051,-0.6466666666666671
1 -> 2,0.2049020000000001,0.20490199999999997,0.20490200000000003,0.20490200000000003,0.20490199999999997,7.076311083754595e-17,0.0,75.6,75.6,75.6,75.6,75.6,0.0,0.0,33.030000000000015,33.02999999999999,33.03000000000001,33.030000000000015,33.030000000000015,1.1783018260144473e-14,7.105427357601002e-15,22.59,17.46,20.22,20.415,17.46,1.921757008573144,-1.7099999999999997
1 -> 2,0.2049020000000001,0.20490199999999997,0.20490200000000003,0.20490200000000003,0.20490199999999997,7.076311083754595e-17,0.0,75.6,75.6,75.6,75.6,75.6,0.0,0.0,33.030000000000015,33.02999999999999,33.03000000000001,33.030000000000015,33.030000000000015,1.1783018260144473e-14,7.105427357601002e-15,22.59,17.46,20.22,20.415,17.46,1.921757008573144,-1.7099999999999997
1 -> 2,0.2049020000000001,0.20490199999999997,0.20490200000000003,0.20490200000000003,0.20490199999999997,7.076311083754595e-17,0.0,75.6,75.6,75.6,75.6,75.6,0.0,0.0,33.030000000000015,33.02999999999999,33.03000000000001,33.030000000000015,33.030000000000015,1.1783018260144473e-14,7.105427357601002e-15,15.17,10.08,12.357499999999998,12.09,10.08,1.9251282424815237,-1.6966666666666665
1 -> 2,0.2049020000000001,0.20490199999999997,0.20490200000000003,0.20490200000000003,0.20490199999999997,7.076311083754595e-17,0.0,75.6,75.6,75.6,75.6,75.6,0.0,0.0,33.030000000000015,33.02999999999999,33.03000000000001,33.030000000000015,33.030000000000015,1.1783018260144473e-14,7.105427357601002e-15,15.17,10.08,12.357499999999998,12.09,10.08,1.9251282424815237,-1.6966666666666665
1 -> 2,0.2049020000000001,0.20490199999999997,0.20490200000000003,0.20490200000000003,0.20490199999999997,7.076311083754595e-17,0.0,75.6,75.6,75.6,75.6,75.6,0.0,0.0,33.030000000000015,33.02999999999999,33.03000000000001,33.030000000000015,33.030000000000015,1.1783018260144473e-14,7.105427357601002e-15,10.82,9.67,10.1675,10.09,9.67,0.4500763824063646,0.38333333333333347
1 -> 2,0.2049020000000001,0.20490199999999997,0.20490200000000003,0.20490200000000003,0.20490199999999997,7.076311083754595e-17,0.0,75.6,75.6,75.6,75.6,75.6,0.0,0.0,33.030000000000015,33.02999999999999,33.03000000000001,33.030000000000015,33.030000000000015,1.1783018260144473e-14,7.105427357601002e-15,10.82,9.67,10.1675,10.09,9.67,0.4500763824063646,0.38333333333333347
1 -> 2,0.2049020000000001,0.20490199999999997,0.20490200000000003,0.20490200000000003,0.20490199999999997,7.076311083754595e-17,0.0,75.6,75.6,75.6,75.6,75.6,0.0,0.0,33.030000000000015,33.02999999999999,33.03000000000001,33.030000000000015,33.030000000000015,1.1783018260144473e-14,7.105427357601002e-15,10.99,8.31,9.935,10.219999999999999,8.31,1.0393627855566119,-0.8933333333333332
1 -> 2,0.2049020000000001,0.20490199999999997,0.20490200000000003,0.20490200000000003,0.20490199999999997,7.076311083754595e-17,0.0,75.6,75.6,75.6,75.6,75.6,0.0,0.0,33.030000000000015,33.02999999999999,33.03000000000001,33.030000000000015,33.030000000000015,1.1783018260144473e-14,7.105427357601002e-15,10.99,8.31,9.935,10.219999999999999,8.31,1.0393627855566119,-0.8933333333333332
1 -> 2,0.2036210000000001,0.20362099999999997,0.20362100000000002,0.20362100000000005,0.2036210000000001,6.655553224256149e-17,-9.25185853854297e-18,75.6,75.6,75.6,75.6,75.6,0.0,0.0,33.030000000000015,33.02999999999999,33.03000000000001,33.030000000000015,33.030000000000015,1.1783018260144473e-14,7.105427357601002e-15,6.37,-1.7,2.495,2.655,-1.7,3.0140048108787085,-2.69
1 -> 2,0.2036210000000001,0.20362099999999997,0.20362100000000002,0.20362100000000005,0.2036210000000001,6.655553224256149e-17,-9.25185853854297e-18,75.6,75.6,75.6,75.6,75.6,0.0,0.0,33.030000000000015,33.02999999999999,33.03000000000001,33.030000000000015,33.030000000000015,1.1783018260144473e-14,7.105427357601002e-15,6.37,-1.7,2.495,2.655,-1.7,3.0140048108787085,-2.69
1 -> 2,0.2036210000000001,0.20362099999999997,0.20362100000000002,0.20362100000000005,0.2036210000000001,6.655553224256149e-17,-9.25185853854297e-18,75.6,75.6,75.6,75.6,75.6,0.0,0.0,33.030000000000015,33.02999999999999,33.03000000000001,33.030000000000015,33.030000000000015,1.1783018260144473e-14,7.105427357601002e-15,-4.88,-14.11,-9.5875,-9.68,-14.11,3.445935105308862,-3.0766666666666667
1 -> 2,0.2036210000000001,0.20362099999999997,0.20362100000000002,0.20362100000000005,0.2036210000000001,6.655553224256149e-17,-9.25185853854297e-18,75.6,75.6,75.6,75.6,75.6,0.0,0.0,33.030000000000015,33.02999999999999,33.03000000000001,33.030000000000015,33.030000000000015,1.1783018260144473e-14,7.105427357601002e-15,-4.88,-14.11,-9.5875,-9.68,-14.11,3.445935105308862,-3.0766666666666667
1 -> 2,0.2036210000000001,0.20362099999999997,0.20362100000000002,0.20362100000000005,0.2036210000000001,6.655553224256149e-17,-9.25185853854297e-18,75.6,75.6,75.6,75.6,75.6,0.0,0.0,33.030000000000015,33.02999999999999,33.03000000000001,33.030000000000015,33.030000000000015,1.1783018260144473e-14,7.105427357601002e-15,-16.69,-23.86,-20.28,-20.285,-23.86,2.6698782743788145,-2.3899999999999992
1 -> 2,0.2036210000000001,0.20362099999999997,0.20362100000000002,0.20362100000000005,0.2036210000000001,6.655553224256149e-17,-9.25185853854297e-18,75.6,75.6,75.6,75.6,75.6,0.0,0.0,33.030000000000015,33.02999999999999,33.03000000000001,33.030000000000015,33.030000000000015,1.1783018260144473e-14,7.105427357601002e-15,-16.69,-23.86,-20.28,-20.285,-23.86,2.6698782743788145,-2.3899999999999992
1 -> 2,0.2036210000000001,0.20362099999999997,0.20362100000000002,0.20362100000000005,0.2036210000000001,6.655553224256149e-17,-9.25185853854297e-18,75.6,75.6,75.6,75.6,75.6,0.0,0.0,33.030000000000015,33.02999999999999,33.03000000000001,33.030000000000015,33.030000000000015,1.1783018260144473e-14,7.105427357601002e-15,-26.19,-29.17,-28.115000000000002,-28.55,-29.17,1.18343778881697,-0.9366666666666662
1 -> 2,0.2036210000000001,0.20362099999999997,0.20362100000000002,0.20362100000000005,0.2036210000000001,6.655553224256149e-17,-9.25185853854297e-18,75.6,75.6,75.6,75.6,75.6,0.0,0.0,33.030000000000015,33.02999999999999,33.03000000000001,33.030000000000015,33.030000000000015,1.1783018260144473e-14,7.105427357601002e-15,-26.19,-29.17,-28.115000000000002,-28.55,-29.17,1.18343778881697,-0.9366666666666662
1 -> 2,0.2036210000000001,0.20362099999999997,0.20362100000000002,0.20362100000000005,0.2036210000000001,6.655553224256149e-17,-9.25185853854297e-18,75.6,75.6,75.6,75.6,75.6,0.0,0.0,33.030000000000015,33.02999999999999,33.03000000000001,33.030000000000015,33.030000000000015,1.1783018260144473e-14,7.105427357601002e-15,-17.2,-27.44,-22.585,-22.85,-27.44,3.8467421280870915,3.413333333333334
