PHASE,EDA_MAX,EDA_MIN,EDA_MEAN,EDA_MEDIAN,EDA_MODE,EDA_SD,EDA_DIFF,HR_MAX,HR_MIN,HR_MEAN,HR_MEDIAN,HR_MODE,HR_SD,HR_DIFF,SKT_MAX,SKT_MIN,SKT_MEAN,SKT_MEDIAN,SKT_MODE,SKT_SD,SKT_DIFF,BVP_MAX,BVP_MIN,BVP_MEAN,BVP_MEDIAN,BVP_MODE,BVP_SD,BVP_DIFF
1 -> 2,0.11012200000000005,0.11012199999999997,0.11012200000000003,0.11012200000000003,0.11012200000000005,3.98609107286759e-17,-4.625929269271485e-18,59.0,59.0,59.0,59.0,59.0,0.0,0.0,32.250000000000014,32.24999999999998,32.25,32.25,32.250000000000014,1.507288760336424e-14,-4.736951571734001e-15,-35.72,-42.79,-39.3775,-39.5,-42.79,2.642559128950572,2.356666666666667
1 -> 2,0.11012200000000005,0.11012199999999997,0.11012200000000003,0.11012200000000003,0.11012200000000005,3.98609107286759e-17,-4.625929269271485e-18,59.0,59.0,59.0,59.0,59.0,0.0,0.0,32.250000000000014,32.24999999999998,32.25,32.25,32.250000000000014,1.507288760336424e-14,-4.736951571734001e-15,-35.72,-42.79,-39.3775,-39.5,-42.79,2.642559128950572,2.356666666666667
1 -> 2,0.11012200000000005,0.11012199999999997,0.11012200000000003,0.11012200000000003,0.11012200000000005,3.98609107286759e-17,-4.625929269271485e-18,59.0,59.0,59.0,59.0,59.0,0.0,0.0,32.250000000000014,32.24999999999998,32.25,32.25,32.250000000000014,1.507288760336424e-14,-4.736951571734001e-15,-26.15,-33.08,-29.464999999999996,-29.314999999999998,-33.08,2.593785843125835,2.31
1 -> 2,0.11012200000000005,0.11012199999999997,0.11012200000000003,0.11012200000000003,0.11012200000000005,3.98609107286759e-17,-4.625929269271485e-18,59.0,59.0,59.0,59.0,59.0,0.0,0.0,32.250000000000014,32.24999999999998,32.25,32.25,32.250000000000014,1.507288760336424e-14,-4.736951571734001e-15,-26.15,-33.08,-29.464999999999996,-29.314999999999998,-33.08,2.593785843125835,2.31
1 -> 2,0.11012200000000005,0.11012199999999997,0.11012200000000003,0.11012200000000003,0.11012200000000005,3.98609107286759e-17,-4.625929269271485e-18,59.0,59.0,59.0,59.0,59.0,0.0,0.0,32.250000000000014,32.24999999999998,32.25,32.25,32.250000000000014,1.507288760336424e-14,-4.736951571734001e-15,-21.88,-24.65,-23.232499999999998,-23.2,-24.65,1.0218702217013664,0.9233333333333332
1 -> 2,0.11012200000000005,0.11012199999999997,0.11012200000000003,0.11012200000000003,0.11012200000000005,3.98609107286759e-17,-4.625929269271485e-18,59.0,59.0,59.0,59.0,59.0,0.0,0.0,32.250000000000014,32.24999999999998,32.25,32.25,32.250000000000014,1.507288760336424e-14,-4.736951571734001e-15,-21.88,-24.65,-23.232499999999998,-23.2,-24.65,1.0218702217013664,0.9233333333333332
1 -> 2,0.11012200000000005,0.11012199999999997,0.11012200000000003,0.11012200000000003,0.11012200000000005,3.98609107286759e-17,-4.625929269271485e-18,59.0,59.0,59.0,59.0,59.0,0.0,0.0,32.250000000000014,32.24999999999998,32.25,32.25,32.250000000000014,1.507288760336424e-14,-4.736951571734001e-15,-13.38,-20.57,-17.215,-17.455,-20.57,2.6962798445265284,2.3966666666666665
1 -> 2,0.11012200000000005,0.11012199999999997,0.11012200000000003,0.11012200000000003,0.11012200000000005,3.98609107286759e-17,-4.625929269271485e-18,59.0,59.0,59.0,59.0,59.0,0.0,0.0,32.250000000000014,32.24999999999998,32.25,32.25,32.250000000000014,1.507288760336424e-14,-4.736951571734001e-15,-13.38,-20.57,-17.215,-17.455,-20.57,2.6962798445265284,2.3966666666666665
1 -> 2,0.10756100000000006,0.107561,0.10756100000000003,0.10756100000000005,0.10756100000000006,2.5018537765542006e-17,4.625929269271485e-18,59.0,59.0,59.0,59.0,59.0,0.0,0.0,32.250000000000014,32.24999999999998,32.25,32.25,32.250000000000014,1.507288760336424e-14,-4.736951571734001e-15,-1.75,-10.36,-5.9825,-5.91,-10.36,3.210695991525825,2.8699999999999997
1 -> 2,0.10756100000000006,0.107561,0.10756100000000003,0.10756100000000005,0.10756100000000006,2.5018537765542006e-17,4.625929269271485e-18,59.0,59.0,59.0,59.0,59.0,0.0,0.0,32.250000000000014,32.24999999999998,32.25,32.25,32.250000000000014,1.507288760336424e-14,-4.736951571734001e-15,-1.75,-10.36,-5.9825,-5.91,-10.36,3.210695991525825,2.8699999999999997
1 -> 2,0.10756100000000006,0.107561,0.10756100000000003,0.10756100000000005,0.10756100000000006,2.5018537765542006e-17,4.625929269271485e-18,59.0,59.0,59.0,59.0,59.0,0.0,0.0,32.250000000000014,32.24999999999998,32.25,32.25,32.250000000000014,1.507288760336424e-14,-4.736951571734001e-15,7.66,0.84,4.3375,4.425,0.84,2.545038064548348,2.2733333333333334
1 -> 2,0.10756100000000006,0.107561,0.10756100000000003,0.10756100000000005,0.10756100000000006,2.5018537765542006e-17,4.625929269271485e-18,59.0,59.0,59.0,59.0,59.0,0.0,0.0,32.250000000000014,32.24999999999998,32.25,32.25,32.250000000000014,1.507288760336424e-14,-4.736951571734001e-15,7.66,0.84,4.3375,4.425,0.84,2.545038064548348,2.2733333333333334
1 -> 2,0.10756100000000006,0.107561,0.10756100000000003,0.10756100000000005,0.10756100000000006,2.5018537765542006e-17,4.625929269271485e-18,59.0,59.0,59.0,59.0,59.0,0.0,0.0,32.250000000000014,32.24999999999998,32.25,32.25,32.250000000000014,1.507288760336424e-14,-4.736951571734001e-15,11.95,9.44,10.965,11.235,9.44,0.9750512807027126,0.8366666666666666
1 -> 2,0.10756100000000006,0.107561,0.10756100000000003,0.10756100000000005,0.10756100000000006,2.5018537765542006e-17,4.625929269271485e-18,59.0,59.0,59.0,59.0,59.0,0.0,0.0,32.250000000000014,32.24999999999998,32.25,32.25,32.250000000000014,1.507288760336424e-14,-4.736951571734001e-15,11.95,9.44,10.965,11.235,9.44,0.9750512807027126,0.8366666666666666
1 -> 2,0.10756100000000006,0.107561,0.10756100000000003,0.10756100000000005,0.10756100000000006,2.5018537765542006e-17,4.625929269271485e-18,59.0,59.0,59.0,59.0,59.0,0.0,0.0,32.250000000000014,32.24999999999998,32.25,32.25,32.250000000000014,1.507288760336424e-14,-4.736951571734001e-15,12.48,11.6,11.899999999999999,11.76,11.6,0.3447462835187643,0.21666666666666679
1 -> 2,0.10756100000000006,0.107561,0.10756100000000003,0.10756100000000005,0.10756100000000006,2.5018537765542006e-17,4.625929269271485e-18,59.0,59.0,59.0,59.0,59.0,0.0,0.0,32.250000000000014,32.24999999999998,32.25,32.25,32.250000000000014,1.507288760336424e-14,-4.736951571734001e-15,12.48,11.6,11.899999999999999,11.76,11.6,0.3447462835187643,0.21666666666666679
1 -> 2,0.11268200000000006,0.11268199999999996,0.11268200000000003,0.11268200000000006,0.11268200000000006,4.046035655711836e-17,2.7755575615628914e-17,59.0,59.0,59.0,59.0,59.0,0.0,0.0,32.250000000000014,32.24999999999998,32.25,32.25,32.250000000000014,1.507288760336424e-14,-4.736951571734001e-15,21.79,14.14,17.932499999999997,17.9,14.14,2.8707435883408325,2.5499999999999994
1 -> 2,0.11268200000000006,0.11268199999999996,0.11268200000000003,0.11268200000000006,0.11268200000000006,4.046035655711836e-17,2.7755575615628914e-17,59.0,59.0,59.0,59.0,59.0,0.0,0.0,32.250000000000014,32.24999999999998,32.25,32.25,32.250000000000014,1.507288760336424e-14,-4.736951571734001e-15,21.79,14.14,17.932499999999997,17.9,14.14,2.8707435883408325,2.5499999999999994
1 -> 2,0.11268200000000006,0.11268199999999996,0.11268200000000003,0.11268200000000006,0.11268200000000006,4.046035655711836e-17,2.7755575615628914e-17,59.0,59.0,59.0,59.0,59.0,0.0,0.0,32.250000000000014,32.24999999999998,32.25,32.25,32.250000000000014,1.507288760336424e-14,-4.736951571734001e-15,24.48,23.24,23.912499999999998,23.965,23.24,0.5010676102084438,-0.1300000000000002
1 -> 2,0.11268200000000006,0.11268199999999996,0.11268200000000003,0.11268200000000006,0.11268200000000006,4.046035655711836e-17,2.7755575615628914e-17,59.0,59.0,59.0,59.0,59.0,0.0,0.0,32.250000000000014,32.24999999999998,32.25,32.25,32.250000000000014,1.507288760336424e-14,-4.736951571734001e-15,24.48,23.24,23.912499999999998,23.965,23.24,0.5010676102084438,-0.1300000000000002
1 -> 2,0.11268200000000006,0.11268199999999996,0.11268200000000003,0.11268200000000006,0.11268200000000006,4.046035655711836e-17,2.7755575615628914e-17,59.0,59.0,59.0,59.0,59.0,0.0,0.0,32.250000000000014,32.24999999999998,32.25,32.25,32.250000000000014,1.507288760336424e-14,-4.736951571734001e-15,21.59,16.36,18.865000000000002,18.755000000000003,16.36,1.9620970923988448,-1.7433333333333334
1 -> 2,0.11268200000000006,0.11268199999999996,0.11268200000000003,0.11268200000000006,0.11268200000000006,4.046035655711836e-17,2.7755575615628914e-17,59.0,59.0,59.0,59.0,59.0,0.0,0.0,32.250000000000014,32.24999999999998,32.25,32.25,32.250000000000014,1.507288760336424e-14,-4.736951571734001e-15,21.59,16.36,18.865000000000002,18.755000000000003,16.36,1.9620970923988448,-1.7433333333333334
1 -> 2,0.11268200000000006,0.11268199999999996,0.11268200000000003,0.11268200000000006,0.11268200000000006,4.046035655711836e-17,2.7755575615628914e-17,59.0,59.0,59.0,59.0,59.0,0.0,0.0,32.250000000000014,32.24999999999998,32.25,32.25,32.250000000000014,1.507288760336424e-14,-4.736951571734001e-15,15.41,15.0,15.219999999999999,15.235,15.0,0.18668154702594478,0.0033333333333332624
1 -> 2,0.11268200000000006,0.11268199999999996,0.11268200000000003,0.11268200000000006,0.11268200000000006,4.046035655711836e-17,2.7755575615628914e-17,59.0,59.0,59.0,59.0,59.0,0.0,0.0,32.250000000000014,32.24999999999998,32.25,32.25,32.250000000000014,1.507288760336424e-14,-4.736951571734001e-15,15.41,15.0,15.219999999999999,15.235,15.0,0.18668154702594478,0.0033333333333332624
1 -> 2,0.11396300000000005,0.11396299999999997,0.11396300000000001,0.11396300000000001,0.11396299999999997,4.163336342344337e-17,0.0,59.0,59.0,59.0,59.0,59.0,0.0,0.0,32.250000000000014,32.24999999999998,32.25,32.25,32.250000000000014,1.507288760336424e-14,-4.736951571734001e-15,16.33,15.84,16.15,16.215,15.84,0.18668154702594433,0.13666666666666671
1 -> 2,0.11396300000000005,0.11396299999999997,0.11396300000000001,0.11396300000000001,0.11396299999999997,4.163336342344337e-17,0.0,59.0,59.0,59.0,59.0,59.0,0.0,0.0,32.250000000000014,32.24999999999998,32.25,32.25,32.250000000000014,1.507288760336424e-14,-4.736951571734001e-15,16.33,15.84,16.15,16.215,15.84,0.18668154702594433,0.13666666666666671
1 -> 2,0.11396300000000005,0.11396299999999997,0.11396300000000001,0.11396300000000001,0.11396299999999997,4.163336342344337e-17,0.0,59.0,59.0,59.0,59.0,59.0,0.0,0.0,32.250000000000014,32.24999999999998,32.25,32.25,32.250000000000014,1.507288760336424e-14,-4.736951571734001e-15,15.94,14.69,15.28,15.245000000000001,14.69,0.4734448225506327,-0.4166666666666667
1 -> 2,0.11396300000000005,0.11396299999999997,0.11396300000000001,0.11396300000000001,0.11396299999999997,4.163336342344337e-17,0.0,59.0,59.0,59.0,59.0,59.0,0.0,0.0,32.250000000000014,32.24999999999998,32.25,32.25,32.250000000000014,1.507288760336424e-14,-4.736951571734001e-15,15.94,14.69,15.28,15.245000000000001,14.69,0.4734448225506327,-0.4166666666666667
1 -> 2,0.11396300000000005,0.11396299999999997,0.11396300000000001,0.11396300000000001,0.11396299999999997,4.163336342344337e-17,0.0,59.0,59.0,59.0,59.0,59.0,0.0,0.0,32.250000000000014,32.24999999999998,32.25,32.25,32.250000000000014,1.507288760336424e-14,-4.736951571734001e-15,15.71,14.65,15.1475,15.115,14.65,0.4057323625248547,0.3533333333333335
1 -> 2,0.11396300000000005,0.11396299999999997,0.11396300000000001,0.11396300000000001,0.11396299999999997,4.163336342344337e-17,0.0,59.0,59.0,59.0,59.0,59.0,0.0,0.0,32.250000000000014,32.24999999999998,32.25,32.25,32.250000000000014,1.507288760336424e-14,-4.736951571734001e-15,15.71,14.65,15.1475,15.115,14.65,0.4057323625248547,0.3533333333333335
1 -> 2,0.11396300000000005,0.11396299999999997,0.11396300000000001,0.11396300000000001,0.11396299999999997,4.163336342344337e-17,0.0,59.0,59.0,59.0,59.0,59.0,0.0,0.0,32.250000000000014,32.24999999999998,32.25,32.25,32.250000000000014,1.507288760336424e-14,-4.736951571734001e-15,15.84,14.44,15.2525,15.364999999999998,14.44,0.5386731383687143,-0.4666666666666668
1 -> 2,0.11396300000000005,0.11396299999999997,0.11396300000000001,0.11396300000000001,0.11396299999999997,4.163336342344337e-17,0.0,59.0,59.0,59.0,59.0,59.0,0.0,0.0,32.250000000000014,32.24999999999998,32.25,32.25,32.250000000000014,1.507288760336424e-14,-4.736951571734001e-15,15.84,14.44,15.2525,15.364999999999998,14.44,0.5386731383687143,-0.4666666666666668
1 -> 2,0.11012200000000005,0.11012199999999997,0.11012200000000003,0.11012200000000003,0.11012200000000005,3.98609107286759e-17,-4.625929269271485e-18,78.5,78.5,78.5,78.5,78.5,0.0,0.0,32.250000000000014,32.24999999999998,32.25,32.25,32.250000000000014,1.507288760336424e-14,-4.736951571734001e-15,13.75,11.33,12.6025,12.665,11.33,0.9000381936340258,-0.8066666666666666
1 -> 2,0.11012200000000005,0.11012199999999997,0.11012200000000003,0.11012200000000003,0.11012200000000005,3.98609107286759e-17,-4.625929269271485e-18,78.5,78.5,78.5,78.5,78.5,0.0,0.0,32.250000000000014,32.24999999999998,32.25,32.25,32.250000000000014,1.507288760336424e-14,-4.736951571734001e-15,13.75,11.33,12.6025,12.665,11.33,0.9000381936340258,-0.8066666666666666
1 -> 2,0.11012200000000005,0.11012199999999997,0.11012200000000003,0.11012200000000003,0.11012200000000005,3.98609107286759e-17,-4.625929269271485e-18,78.5,78.5,78.5,78.5,78.5,0.0,0.0,32.250000000000014,32.24999999999998,32.25,32.25,32.250000000000014,1.507288760336424e-14,-4.736951571734001e-15,10.16,6.63,8.3175,8.24,6.63,1.3250731111904732,-1.1766666666666667
1 -> 2,0.11012200000000005,0.11012199999999997,0.11012200000000003,0.11012200000000003,0.11012200000000005,3.98609107286759e-17,-4.625929269271485e-18,78.5,78.5,78.5,78.5,78.5,0.0,0.0,32.250000000000014,32.24999999999998,32.25,32.25,32.250000000000014,1.507288760336424e-14,-4.736951571734001e-15,10.16,6.63,8.3175,8.24,6.63,1.3250731111904732,-1.1766666666666667
1 -> 2,0.11012200000000005,0.11012199999999997,0.11012200000000003,0.11012200000000003,0.11012200000000005,3.98609107286759e-17,-4.625929269271485e-18,78.5,78.5,78.5,78.5,78.5,0.0,0.0,32.250000000000014,32.24999999999998,32.25,32.25,32.250000000000014,1.507288760336424e-14,-4.736951571734001e-15,5.98,5.53,5.6850000000000005,5.615,5.53,0.17811513130556897,-0.15000000000000005
1 -> 2,0.11012200000000005,0.11012199999999997,0.11012200000000003,0.11012200000000003,0.11012200000000005,3.98609107286759e-17,-4.625929269271485e-18,78.5,78.5,78.5,78.5,78.5,0.0,0.0,32.250000000000014,32.24999999999998,32.25,32.25,32.250000000000014,1.507288760336424e-14,-4.736951571734001e-15,5.98,5.53,5.6850000000000005,5.615,5.53,0.17811513130556897,-0.15000000000000005
1 -> 2,0.11012200000000005,0.11012199999999997,0.11012200000000003,0.11012200000000003,0.11012200000000005,3.98609107286759e-17,-4.625929269271485e-18,78.5,78.5,78.5,78.5,78.5,0.0,0.0,32.250000000000014,32.24999999999998,32.25,32.25,32.250000000000014,1.507288760336424e-14,-4.736951571734001e-15,5.49,5.29,5.385,5.38,5.29,0.07632168761236882,-0.06666666666666672
1 -> 2,0.11012200000000005,0.11012199999999997,0.11012200000000003,0.11012200000000003,0.11012200000000005,3.98609107286759e-17,-4.625929269271485e-18,78.5,78.5,78.5,78.5,78.5,0.0,0.0,32.250000000000014,32.24999999999998,32.25,32.25,32.250000000000014,1.507288760336424e-14,-4.736951571734001e-15,5.49,5.29,5.385,5.38,5.29,0.07632168761236882,-0.06666666666666672
1 -> 2,0.11396300000000005,0.11396299999999997,0.11396300000000001,0.11396300000000001,0.11396299999999997,4.163336342344337e-17,0.0,78.5,78.5,78.5,78.5,78.5,0.0,0.0,32.250000000000014,32.24999999999998,32.25,32.25,32.250000000000014,1.507288760336424e-14,-4.736951571734001e-15,5.28,5.19,5.2525,5.27,5.27,0.03631459761583465,-0.026666666666666394
1 -> 2,0.11396300000000005,0.11396299999999997,0.11396300000000001,0.11396300000000001,0.11396299999999997,4.163336342344337e-17,0.0,78.5,78.5,78.5,78.5,78.5,0.0,0.0,32.250000000000014,32.24999999999998,32.25,32.25,32.250000000000014,1.507288760336424e-14,-4.736951571734001e-15,5.28,5.19,5.2525,5.27,5.27,0.03631459761583465,-0.026666666666666394
1 -> 2,0.11396300000000005,0.11396299999999997,0.11396300000000001,0.11396300000000001,0.11396299999999997,4.163336342344337e-17,0.0,78.5,78.5,78.5,78.5,78.5,0.0,0.0,32.250000000000014,32.24999999999998,32.25,32.25,32.250000000000014,1.507288760336424e-14,-4.736951571734001e-15,5.04,4.07,4.5825000000000005,4.61,4.07,0.36444306825620915,-0.32333333333333325
1 -> 2,0.11396300000000005,0.11396299999999997,0.11396300000000001,0.11396300000000001,0.11396299999999997,4.163336342344337e-17,0.0,78.5,78.5,78.5,78.5,78.5,0.0,0.0,32.250000000000014,32.24999999999998,32.25,32.25,32.250000000000014,1.507288760336424e-14,-4.736951571734001e-15,5.04,4.07,4.5825000000000005,4.61,4.07,0.36444306825620915,-0.32333333333333325
1 -> 2,0.11396300000000005,0.11396299999999997,0.11396300000000001,0.11396300000000001,0.11396299999999997,4.163336342344337e-17,0.0,78.5,78.5,78.5,78.5,78.5,0.0,0.0,32.250000000000014,32.24999999999998,32.25,32.25,32.250000000000014,1.507288760336424e-14,-4.736951571734001e-15,3.69,2.52,3.1125,3.12,2.52,0.4349928160326329,-0.38999999999999996
1 -> 2,0.11396300000000005,0.11396299999999997,0.11396300000000001,0.11396300000000001,0.11396299999999997,4.163336342344337e-17,0.0,78.5,78.5,78.5,78.5,78.5,0.0,0.0,32.250000000000014,32.24999999999998,32.25,32.25,32.250000000000014,1.507288760336424e-14,-4.736951571734001e-15,3.69,2.52,3.1125,3.12,2.52,0.4349928160326329,-0.38999999999999996
1 -> 2,0.11396300000000005,0.11396299999999997,0.11396300000000001,0.11396300000000001,0.11396299999999997,4.163336342344337e-17,0.0,78.5,78.5,78.5,78.5,78.5,0.0,0.0,32.250000000000014,32.24999999999998,32.25,32.25,32.250000000000014,1.507288760336424e-14,-4.736951571734001e-15,2.08,0.43,1.275,1.295,0.43,0.6152438540936431,-0.55
1 -> 2,0.11396300000000005,0.11396299999999997,0.11396300000000001,0.11396300000000001,0.11396299999999997,4.163336342344337e-17,0.0,78.5,78.5,78.5,78.5,78.5,0.0,0.0,32.250000000000014,32.24999999999998,32.25,32.25,32.250000000000014,1.507288760336424e-14,-4.736951571734001e-15,2.08,0.43,1.275,1.295,0.43,0.6152438540936431,-0.55
1 -> 2,0.11140200000000006,0.11140199999999996,0.111402,0.11140200000000001,0.11140200000000006,4.654751537338637e-17,4.625929269271485e-18,78.5,78.5,78.5,78.5,78.5,0.0,0.0,32.250000000000014,32.24999999999998,32.25,32.25,32.250000000000014,1.507288760336424e-14,-4.736951571734001e-15,-0.18,-1.98,-1.0825,-1.085,-1.98,0.6719514491389984,-0.6
1 -> 2,0.11140200000000006,0.11140199999999996,0.111402,0.11140200000000001,0.11140200000000006,4.654751537338637e-17,4.625929269271485e-18,78.5,78.5,78.5,78.5,78.5,0.0,0.0,32.250000000000014,32.24999999999998,32.25,32.25,32.250000000000014,1.507288760336424e-14,-4.736951571734001e-15,-0.18,-1.98,-1.0825,-1.085,-1.98,0.6719514491389984,-0.6
1 -> 2,0.11140200000000006,0.11140199999999996,0.111402,0.11140200000000001,0.11140200000000006,4.654751537338637e-17,4.625929269271485e-18,78.5,78.5,78.5,78.5,78.5,0.0,0.0,32.250000000000014,32.24999999999998,32.25,32.25,32.250000000000014,1.507288760336424e-14,-4.736951571734001e-15,-2.52,-3.85,-3.1999999999999997,-3.215,-3.85,0.4944188507733095,-0.44333333333333336
1 -> 2,0.11140200000000006,0.11140199999999996,0.111402,0.11140200000000001,0.11140200000000006,4.654751537338637e-17,4.625929269271485e-18,78.5,78.5,78.5,78.5,78.5,0.0,0.0,32.250000000000014,32.24999999999998,32.25,32.25,32.250000000000014,1.507288760336424e-14,-4.736951571734001e-15,-2.52,-3.85,-3.1999999999999997,-3.215,-3.85,0.4944188507733095,-0.44333333333333336
1 -> 2,0.11140200000000006,0.11140199999999996,0.111402,0.11140200000000001,0.11140200000000006,4.654751537338637e-17,4.625929269271485e-18,78.5,78.5,78.5,78.5,78.5,0.0,0.0,32.250000000000014,32.24999999999998,32.25,32.25,32.250000000000014,1.507288760336424e-14,-4.736951571734001e-15,-4.29,-5.78,-5.0375000000000005,-5.04,-5.78,0.557959451931769,-0.49666666666666676
1 -> 2,0.11140200000000006,0.11140199999999996,0.111402,0.11140200000000001,0.11140200000000006,4.654751537338637e-17,4.625929269271485e-18,78.5,78.5,78.5,78.5,78.5,0.0,0.0,32.250000000000014,32.24999999999998,32.25,32.25,32.250000000000014,1.507288760336424e-14,-4.736951571734001e-15,-4.29,-5.78,-5.0375000000000005,-5.04,-5.78,0.557959451931769,-0.49666666666666676
1 -> 2,0.11140200000000006,0.11140199999999996,0.111402,0.11140200000000001,0.11140200000000006,4.654751537338637e-17,4.625929269271485e-18,78.5,78.5,78.5,78.5,78.5,0.0,0.0,32.250000000000014,32.24999999999998,32.25,32.25,32.250000000000014,1.507288760336424e-14,-4.736951571734001e-15,-5.56,-6.21,-5.975,-6.0649999999999995,-6.21,0.24884734276258627,0.18333333333333357
1 -> 2,0.11140200000000006,0.11140199999999996,0.111402,0.11140200000000001,0.11140200000000006,4.654751537338637e-17,4.625929269271485e-18,78.5,78.5,78.5,78.5,78.5,0.0,0.0,32.250000000000014,32.24999999999998,32.25,32.25,32.250000000000014,1.507288760336424e-14,-4.736951571734001e-15,-5.56,-6.21,-5.975,-6.0649999999999995,-6.21,0.24884734276258627,0.18333333333333357
1 -> 2,0.11524300000000005,0.1152429999999999,0.115243,0.11524300000000001,0.11524300000000005,6.397344083151129e-17,2.312964634635743e-17,78.5,78.5,78.5,78.5,78.5,0.0,0.0,32.250000000000014,32.24999999999998,32.25,32.25,32.250000000000014,1.507288760336424e-14,-4.736951571734001e-15,-3.01,-4.91,-3.905,-3.8499999999999996,-4.91,0.7132496056781245,0.6333333333333334
1 -> 2,0.11524300000000005,0.1152429999999999,0.115243,0.11524300000000001,0.11524300000000005,6.397344083151129e-17,2.312964634635743e-17,78.5,78.5,78.5,78.5,78.5,0.0,0.0,32.250000000000014,32.24999999999998,32.25,32.25,32.250000000000014,1.507288760336424e-14,-4.736951571734001e-15,-3.01,-4.91,-3.905,-3.8499999999999996,-4.91,0.7132496056781245,0.6333333333333334
1 -> 2,0.11524300000000005,0.1152429999999999,0.115243,0.11524300000000001,0.11524300000000005,6.397344083151129e-17,2.312964634635743e-17,78.5,78.5,78.5,78.5,78.5,0.0,0.0,32.250000000000014,32.24999999999998,32.25,32.25,32.250000000000014,1.507288760336424e-14,-4.736951571734001e-15,-2.71,-3.25,-2.9025,-2.825,-3.25,0.21463632031881275,-0.16999999999999993
1 -> 2,0.11524300000000005,0.1152429999999999,0.115243,0.11524300000000001,0.11524300000000005,6.397344083151129e-17,2.312964634635743e-17,78.5,78.5,78.5,78.5,78.5,0.0,0.0,32.250000000000014,32.24999999999998,32.25,32.25,32.250000000000014,1.507288760336424e-14,-4.736951571734001e-15,-2.71,-3.25,-2.9025,-2.825,-3.25,0.21463632031881275,-0.16999999999999993
1 -> 2,0.11524300000000005,0.1152429999999999,0.115243,0.11524300000000001,0.11524300000000005,6.397344083151129e-17,2.312964634635743e-17,78.5,78.5,78.5,78.5,78.5,0.0,0.0,32.250000000000014,32.24999999999998,32.25,32.25,32.250000000000014,1.507288760336424e-14,-4.736951571734001e-15,-3.6,-3.88,-3.7600000000000002,-3.7800000000000002,-3.88,0.10954451150103311,-0.040000000000000036
1 -> 2,0.11524300000000005,0.1152429999999999,0.115243,0.11524300000000001,0.11524300000000005,6.397344083151129e-17,2.312964634635743e-17,78.5,78.5,78.5,78.5,78.5,0.0,0.0,32.250000000000014,32.24999999999998,32.25,32.25,32.250000000000014,1.507288760336424e-14,-4.736951571734001e-15,-3.6,-3.88,-3.7600000000000002,-3.7800000000000002,-3.88,0.10954451150103311,-0.040000000000000036
1 -> 2,0.11524300000000005,0.1152429999999999,0.115243,0.11524300000000001,0.11524300000000005,6.397344083151129e-17,2.312964634635743e-17,78.5,78.5,78.5,78.5,78.5,0.0,0.0,32.250000000000014,32.24999999999998,32.25,32.25,32.250000000000014,1.507288760336424e-14,-4.736951571734001e-15,-2.86,-3.42,-3.0725,-3.005,-3.42,0.22196565049574676,0.18666666666666668
1 -> 2,0.11524300000000005,0.1152429999999999,0.115243,0.11524300000000001,0.11524300000000005,6.397344083151129e-17,2.312964634635743e-17,78.5,78.5,78.5,78.5,78.5,0.0,0.0,32.250000000000014,32.24999999999998,32.25,32.25,32.250000000000014,1.507288760336424e-14,-4.736951571734001e-15,-2.86,-3.42,-3.0725,-3.005,-3.42,0.22196565049574676,0.18666666666666668
1 -> 2,0.11524300000000005,0.1152429999999999,0.115243,0.11524300000000001,0.11524300000000005,6.397344083151129e-17,2.312964634635743e-17,88.67,88.67,88.67,88.67,88.67,0.0,0.0,32.23000000000001,32.229999999999976,32.23,32.230000000000004,32.23000000000001,1.507288760336424e-14,4.736951571734001e-15,-2.97,-3.47,-3.2500000000000004,-3.2800000000000002,-3.47,0.19274335267396378,-0.16666666666666666
1 -> 2,0.11524300000000005,0.1152429999999999,0.115243,0.11524300000000001,0.11524300000000005,6.397344083151129e-17,2.312964634635743e-17,88.67,88.67,88.67,88.67,88.67,0.0,0.0,32.23000000000001,32.229999999999976,32.23,32.230000000000004,32.23000000000001,1.507288760336424e-14,4.736951571734001e-15,-2.97,-3.47,-3.2500000000000004,-3.2800000000000002,-3.47,0.19274335267396378,-0.16666666666666666
1 -> 2,0.11524300000000005,0.1152429999999999,0.115243,0.11524300000000001,0.11524300000000005,6.397344083151129e-17,2.312964634635743e-17,88.67,88.67,88.67,88.67,88.67,0.0,0.0,32.23000000000001,32.229999999999976,32.23,32.230000000000004,32.23000000000001,1.507288760336424e-14,4.736951571734001e-15,-2.35,-3.4,-2.9125,-2.95,-3.4,0.39657124202342253,0.3499999999999999
1 -> 2,0.11524300000000005,0.1152429999999999,0.115243,0.11524300000000001,0.11524300000000005,6.397344083151129e-17,2.312964634635743e-17,88.67,88.67,88.67,88.67,88.67,0.0,0.0,32.23000000000001,32.229999999999976,32.23,32.230000000000004,32.23000000000001,1.507288760336424e-14,4.736951571734001e-15,-2.35,-3.4,-2.9125,-2.95,-3.4,0.39657124202342253,0.3499999999999999
1 -> 2,0.11524300000000005,0.1152429999999999,0.115243,0.11524300000000001,0.11524300000000005,6.397344083151129e-17,2.312964634635743e-17,88.67,88.67,88.67,88.67,88.67,0.0,0.0,32.23000000000001,32.229999999999976,32.23,32.230000000000004,32.23000000000001,1.507288760336424e-14,4.736951571734001e-15,-1.97,-2.49,-2.1625,-2.0949999999999998,-2.49,0.1974050404624969,-0.1433333333333334
1 -> 2,0.11524300000000005,0.1152429999999999,0.115243,0.11524300000000001,0.11524300000000005,6.397344083151129e-17,2.312964634635743e-17,88.67,88.67,88.67,88.67,88.67,0.0,0.0,32.23000000000001,32.229999999999976,32.23,32.230000000000004,32.23000000000001,1.507288760336424e-14,4.736951571734001e-15,-1.97,-2.49,-2.1625,-2.0949999999999998,-2.49,0.1974050404624969,-0.1433333333333334
1 -> 2,0.11524300000000005,0.1152429999999999,0.115243,0.11524300000000001,0.11524300000000005,6.397344083151129e-17,2.312964634635743e-17,88.67,88.67,88.67,88.67,88.67,0.0,0.0,32.23000000000001,32.229999999999976,32.23,32.230000000000004,32.23000000000001,1.507288760336424e-14,4.736951571734001e-15,-2.93,-3.59,-3.3525,-3.445,-3.59,0.26611792498815245,-0.2199999999999999
1 -> 2,0.11524300000000005,0.1152429999999999,0.115243,0.11524300000000001,0.11524300000000005,6.397344083151129e-17,2.312964634635743e-17,88.67,88.67,88.67,88.67,88.67,0.0,0.0,32.23000000000001,32.229999999999976,32.23,32.230000000000004,32.23000000000001,1.507288760336424e-14,4.736951571734001e-15,-2.93,-3.59,-3.3525,-3.445,-3.59,0.26611792498815245,-0.2199999999999999
1 -> 2,0.11268200000000006,0.11268199999999996,0.11268200000000003,0.11268200000000006,0.11268200000000006,4.046035655711836e-17,2.7755575615628914e-17,88.67,88.67,88.67,88.67,88.67,0.0,0.0,32.23000000000001,32.229999999999976,32.23,32.230000000000004,32.23000000000001,1.507288760336424e-14,4.736951571734001e-15,-1.01,-3.33,-2.28,-2.39,-3.33,0.8745856161634492,0.7733333333333334
1 -> 2,0.11268200000000006,0.11268199999999996,0.11268200000000003,0.11268200000000006,0.11268200000000006,4.046035655711836e-17,2.7755575615628914e-17,88.67,88.67,88.67,88.67,88.67,0.0,0.0,32.23000000000001,32.229999999999976,32.23,32.230000000000004,32.23000000000001,1.507288760336424e-14,4.736951571734001e-15,-1.01,-3.33,-2.28,-2.39,-3.33,0.8745856161634492,0.7733333333333334
1 -> 2,0.11268200000000006,0.11268199999999996,0.11268200000000003,0.11268200000000006,0.11268200000000006,4.046035655711836e-17,2.7755575615628914e-17,88.67,88.67,88.67,88.67,88.67,0.0,0.0,32.23000000000001,32.229999999999976,32.23,32.230000000000004,32.23000000000001,1.507288760336424e-14,4.736951571734001e-15,3.0,0.04,1.545,1.57,0.04,1.1026672208785386,0.9866666666666667
1 -> 2,0.11268200000000006,0.11268199999999996,0.11268200000000003,0.11268200000000006,0.11268200000000006,4.046035655711836e-17,2.7755575615628914e-17,88.67,88.67,88.67,88.67,88.67,0.0,0.0,32.23000000000001,32.229999999999976,32.23,32.230000000000004,32.23000000000001,1.507288760336424e-14,4.736951571734001e-15,3.0,0.04,1.545,1.57,0.04,1.1026672208785386,0.9866666666666667
1 -> 2,0.11268200000000006,0.11268199999999996,0.11268200000000003,0.11268200000000006,0.11268200000000006,4.046035655711836e-17,2.7755575615628914e-17,88.67,88.67,88.67,88.67,88.67,0.0,0.0,32.23000000000001,32.229999999999976,32.23,32.230000000000004,32.23000000000001,1.507288760336424e-14,4.736951571734001e-15,5.88,3.92,5.0175,5.135,3.92,0.7463368877390424,0.6533333333333333
1 -> 2,0.11268200000000006,0.11268199999999996,0.11268200000000003,0.11268200000000006,0.11268200000000006,4.046035655711836e-17,2.7755575615628914e-17,88.67,88.67,88.67,88.67,88.67,0.0,0.0,32.23000000000001,32.229999999999976,32.23,32.230000000000004,32.23000000000001,1.507288760336424e-14,4.736951571734001e-15,5.88,3.92,5.0175,5.135,3.92,0.7463368877390424,0.6533333333333333
1 -> 2,0.11268200000000006,0.11268199999999996,0.11268200000000003,0.11268200000000006,0.11268200000000006,4.046035655711836e-17,2.7755575615628914e-17,88.67,88.67,88.67,88.67,88.67,0.0,0.0,32.23000000000001,32.229999999999976,32.23,32.230000000000004,32.23000000000001,1.507288760336424e-14,4.736951571734001e-15,5.82,3.74,4.8575,4.9350000000000005,3.74,0.7904547741648474,-0.6933333333333334
1 -> 2,0.11268200000000006,0.11268199999999996,0.11268200000000003,0.11268200000000006,0.11268200000000006,4.046035655711836e-17,2.7755575615628914e-17,88.67,88.67,88.67,88.67,88.67,0.0,0.0,32.23000000000001,32.229999999999976,32.23,32.230000000000004,32.23000000000001,1.507288760336424e-14,4.736951571734001e-15,5.82,3.74,4.8575,4.9350000000000005,3.74,0.7904547741648474,-0.6933333333333334
1 -> 2,0.11268200000000006,0.11268199999999996,0.11268200000000003,0.11268200000000006,0.11268200000000006,4.046035655711836e-17,2.7755575615628914e-17,88.67,88.67,88.67,88.67,88.67,0.0,0.0,32.23000000000001,32.229999999999976,32.23,32.230000000000004,32.23000000000001,1.507288760336424e-14,4.736951571734001e-15,4.2,3.12,3.51,3.3600000000000003,3.12,0.4255584566190643,0.3333333333333333
1 -> 2,0.11268200000000006,0.11268199999999996,0.11268200000000003,0.11268200000000006,0.11268200000000006,4.046035655711836e-17,2.7755575615628914e-17,88.67,88.67,88.67,88.67,88.67,0.0,0.0,32.23000000000001,32.229999999999976,32.23,32.230000000000004,32.23000000000001,1.507288760336424e-14,4.736951571734001e-15,4.2,3.12,3.51,3.3600000000000003,3.12,0.4255584566190643,0.3333333333333333
1 -> 2,0.11268200000000006,0.11268199999999996,0.11268200000000003,0.11268200000000006,0.11268200000000006,4.046035655711836e-17,2.7755575615628914e-17,88.67,88.67,88.67,88.67,88.67,0.0,0.0,32.23000000000001,32.229999999999976,32.23,32.230000000000004,32.23000000000001,1.507288760336424e-14,4.736951571734001e-15,5.26,4.63,4.9875,5.029999999999999,4.63,0.2503372724945288,-0.08333333333333333
1 -> 2,0.11268200000000006,0.11268199999999996,0.11268200000000003,0.11268200000000006,0.11268200000000006,4.046035655711836e-17,2.7755575615628914e-17,88.67,88.67,88.67,88.67,88.67,0.0,0.0,32.23000000000001,32.229999999999976,32.23,32.230000000000004,32.23000000000001,1.507288760336424e-14,4.736951571734001e-15,5.26,4.63,4.9875,5.029999999999999,4.63,0.2503372724945288,-0.08333333333333333
1 -> 2,0.11268200000000006,0.11268199999999996,0.11268200000000003,0.11268200000000006,0.11268200000000006,4.046035655711836e-17,2.7755575615628914e-17,88.67,88.67,88.67,88.67,88.67,0.0,0.0,32.23000000000001,32.229999999999976,32.23,32.230000000000004,32.23000000000001,1.507288760336424e-14,4.736951571734001e-15,3.8,1.72,2.6525000000000003,2.545,1.72,0.7867456704679092,-0.6933333333333334
1 -> 2,0.11268200000000006,0.11268199999999996,0.11268200000000003,0.11268200000000006,0.11268200000000006,4.046035655711836e-17,2.7755575615628914e-17,88.67,88.67,88.67,88.67,88.67,0.0,0.0,32.23000000000001,32.229999999999976,32.23,32.230000000000004,32.23000000000001,1.507288760336424e-14,4.736951571734001e-15,3.8,1.72,2.6525000000000003,2.545,1.72,0.7867456704679092,-0.6933333333333334
1 -> 2,0.11268200000000006,0.11268199999999996,0.11268200000000003,0.11268200000000006,0.11268200000000006,4.046035655711836e-17,2.7755575615628914e-17,88.67,88.67,88.67,88.67,88.67,0.0,0.0,32.23000000000001,32.229999999999976,32.23,32.230000000000004,32.23000000000001,1.507288760336424e-14,4.736951571734001e-15,1.51,1.47,1.49,1.49,1.49,0.014142135623730963,-0.006666666666666672
1 -> 2,0.11268200000000006,0.11268199999999996,0.11268200000000003,0.11268200000000006,0.11268200000000006,4.046035655711836e-17,2.7755575615628914e-17,88.67,88.67,88.67,88.67,88.67,0.0,0.0,32.23000000000001,32.229999999999976,32.23,32.230000000000004,32.23000000000001,1.507288760336424e-14,4.736951571734001e-15,1.51,1.47,1.49,1.49,1.49,0.014142135623730963,-0.006666666666666672
1 -> 2,0.11396300000000005,0.11396299999999997,0.11396300000000001,0.11396300000000001,0.11396299999999997,4.163336342344337e-17,0.0,88.67,88.67,88.67,88.67,88.67,0.0,0.0,32.23000000000001,32.229999999999976,32.23,32.230000000000004,32.23000000000001,1.507288760336424e-14,4.736951571734001e-15,1.45,1.34,1.3875,1.38,1.34,0.04023369234857765,-0.026666666666666616
1 -> 2,0.11396300000000005,0.11396299999999997,0.11396300000000001,0.11396300000000001,0.11396299999999997,4.163336342344337e-17,0.0,88.67,88.67,88.67,88.67,88.67,0.0,0.0,32.23000000000001,32.229999999999976,32.23,32.230000000000004,32.23000000000001,1.507288760336424e-14,4.736951571734001e-15,1.45,1.34,1.3875,1.38,1.34,0.04023369234857765,-0.026666666666666616
1 -> 2,0.11396300000000005,0.11396299999999997,0.11396300000000001,0.11396300000000001,0.11396299999999997,4.163336342344337e-17,0.0,88.67,88.67,88.67,88.67,88.67,0.0,0.0,32.23000000000001,32.229999999999976,32.23,32.230000000000004,32.23000000000001,1.507288760336424e-14,4.736951571734001e-15,2.31,1.5,1.8875000000000002,1.8699999999999999,1.5,0.30351070821307113,0.27
1 -> 2,0.11396300000000005,0.11396299999999997,0.11396300000000001,0.11396300000000001,0.11396299999999997,4.163336342344337e-17,0.0,88.67,88.67,88.67,88.67,88.67,0.0,0.0,32.23000000000001,32.229999999999976,32.23,32.230000000000004,32.23000000000001,1.507288760336424e-14,4.736951571734001e-15,2.31,1.5,1.8875000000000002,1.8699999999999999,1.5,0.30351070821307113,0.27
1 -> 2,0.11396300000000005,0.11396299999999997,0.11396300000000001,0.11396300000000001,0.11396299999999997,4.163336342344337e-17,0.0,88.67,88.67,88.67,88.67,88.67,0.0,0.0,32.23000000000001,32.229999999999976,32.23,32.230000000000004,32.23000000000001,1.507288760336424e-14,4.736951571734001e-15,3.77,2.6,3.1425,3.1,2.6,0.4369997139587164,0.38999999999999996
1 -> 2,0.11396300000000005,0.11396299999999997,0.11396300000000001,0.11396300000000001,0.11396299999999997,4.163336342344337e-17,0.0,88.67,88.67,88.67,88.67,88.67,0.0,0.0,32.23000000000001,32.229999999999976,32.23,32.230000000000004,32.23000000000001,1.507288760336424e-14,4.736951571734001e-15,3.77,2.6,3.1425,3.1,2.6,0.4369997139587164,0.38999999999999996
1 -> 2,0.11396300000000005,0.11396299999999997,0.11396300000000001,0.11396300000000001,0.11396299999999997,4.163336342344337e-17,0.0,88.67,88.67,88.67,88.67,88.67,0.0,0.0,32.23000000000001,32.229999999999976,32.23,32.230000000000004,32.23000000000001,1.507288760336424e-14,4.736951571734001e-15,5.42,4.34,4.9825,5.085,4.34,0.4187108190625125,0.36000000000000004
1 -> 2,0.11396300000000005,0.11396299999999997,0.11396300000000001,0.11396300000000001,0.11396299999999997,4.163336342344337e-17,0.0,88.67,88.67,88.67,88.67,88.67,0.0,0.0,32.23000000000001,32.229999999999976,32.23,32.230000000000004,32.23000000000001,1.507288760336424e-14,4.736951571734001e-15,5.42,4.34,4.9825,5.085,4.34,0.4187108190625125,0.36000000000000004
1 -> 2,0.11780400000000006,0.11780399999999995,0.11780400000000002,0.11780400000000003,0.11780400000000006,4.6027415078689346e-17,1.850371707708594e-17,84.0,84.0,84.0,84.0,84.0,0.0,0.0,32.23000000000001,32.229999999999976,32.23,32.230000000000004,32.23000000000001,1.507288760336424e-14,4.736951571734001e-15,5.27,3.89,4.615,4.65,3.89,0.5201201784203338,-0.4599999999999998
1 -> 2,0.11780400000000006,0.11780399999999995,0.11780400000000002,0.11780400000000003,0.11780400000000006,4.6027415078689346e-17,1.850371707708594e-17,84.0,84.0,84.0,84.0,84.0,0.0,0.0,32.23000000000001,32.229999999999976,32.23,32.230000000000004,32.23000000000001,1.507288760336424e-14,4.736951571734001e-15,5.27,3.89,4.615,4.65,3.89,0.5201201784203338,-0.4599999999999998
1 -> 2,0.11780400000000006,0.11780399999999995,0.11780400000000002,0.11780400000000003,0.11780400000000006,4.6027415078689346e-17,1.850371707708594e-17,84.0,84.0,84.0,84.0,84.0,0.0,0.0,32.23000000000001,32.229999999999976,32.23,32.230000000000004,32.23000000000001,1.507288760336424e-14,4.736951571734001e-15,3.38,2.06,2.7075,2.6950000000000003,2.06,0.49322281982892874,-0.43999999999999995
1 -> 2,0.11780400000000006,0.11780399999999995,0.11780400000000002,0.11780400000000003,0.11780400000000006,4.6027415078689346e-17,1.850371707708594e-17,84.0,84.0,84.0,84.0,84.0,0.0,0.0,32.23000000000001,32.229999999999976,32.23,32.230000000000004,32.23000000000001,1.507288760336424e-14,4.736951571734001e-15,3.38,2.06,2.7075,2.6950000000000003,2.06,0.49322281982892874,-0.43999999999999995
1 -> 2,0.11780400000000006,0.11780399999999995,0.11780400000000002,0.11780400000000003,0.11780400000000006,4.6027415078689346e-17,1.850371707708594e-17,84.0,84.0,84.0,84.0,84.0,0.0,0.0,32.23000000000001,32.229999999999976,32.23,32.230000000000004,32.23000000000001,1.507288760336424e-14,4.736951571734001e-15,1.72,1.16,1.4125,1.385,1.16,0.20873128658636683,-0.18666666666666668
1 -> 2,0.11780400000000006,0.11780399999999995,0.11780400000000002,0.11780400000000003,0.11780400000000006,4.6027415078689346e-17,1.850371707708594e-17,84.0,84.0,84.0,84.0,84.0,0.0,0.0,32.23000000000001,32.229999999999976,32.23,32.230000000000004,32.23000000000001,1.507288760336424e-14,4.736951571734001e-15,1.72,1.16,1.4125,1.385,1.16,0.20873128658636683,-0.18666666666666668
1 -> 2,0.11780400000000006,0.11780399999999995,0.11780400000000002,0.11780400000000003,0.11780400000000006,4.6027415078689346e-17,1.850371707708594e-17,84.0,84.0,84.0,84.0,84.0,0.0,0.0,32.23000000000001,32.229999999999976,32.23,32.230000000000004,32.23000000000001,1.507288760336424e-14,4.736951571734001e-15,0.99,-0.11,0.49499999999999994,0.55,-0.11,0.41288618286399464,-0.3666666666666667
1 -> 2,0.11780400000000006,0.11780399999999995,0.11780400000000002,0.11780400000000003,0.11780400000000006,4.6027415078689346e-17,1.850371707708594e-17,84.0,84.0,84.0,84.0,84.0,0.0,0.0,32.23000000000001,32.229999999999976,32.23,32.230000000000004,32.23000000000001,1.507288760336424e-14,4.736951571734001e-15,0.99,-0.11,0.49499999999999994,0.55,-0.11,0.41288618286399464,-0.3666666666666667
1 -> 2,0.11908500000000005,0.11908499999999995,0.11908500000000002,0.11908500000000004,0.11908500000000005,3.98609107286759e-17,2.312964634635743e-17,84.0,84.0,84.0,84.0,84.0,0.0,0.0,32.23000000000001,32.229999999999976,32.23,32.230000000000004,32.23000000000001,1.507288760336424e-14,4.736951571734001e-15,-0.72,-3.3,-1.9675,-1.925,-3.3,0.9658513084321002,-0.86
1 -> 2,0.11908500000000005,0.11908499999999995,0.11908500000000002,0.11908500000000004,0.11908500000000005,3.98609107286759e-17,2.312964634635743e-17,84.0,84.0,84.0,84.0,84.0,0.0,0.0,32.23000000000001,32.229999999999976,32.23,32.230000000000004,32.23000000000001,1.507288760336424e-14,4.736951571734001e-15,-0.72,-3.3,-1.9675,-1.925,-3.3,0.9658513084321002,-0.86
1 -> 2,0.11908500000000005,0.11908499999999995,0.11908500000000002,0.11908500000000004,0.11908500000000005,3.98609107286759e-17,2.312964634635743e-17,84.0,84.0,84.0,84.0,84.0,0.0,0.0,32.23000000000001,32.229999999999976,32.23,32.230000000000004,32.23000000000001,1.507288760336424e-14,4.736951571734001e-15,-4.14,-4.98,-4.6525,-4.745,-4.98,0.3110767590161634,-0.20000000000000018
1 -> 2,0.11908500000000005,0.11908499999999995,0.11908500000000002,0.11908500000000004,0.11908500000000005,3.98609107286759e-17,2.312964634635743e-17,84.0,84.0,84.0,84.0,84.0,0.0,0.0,32.23000000000001,32.229999999999976,32.23,32.230000000000004,32.23000000000001,1.507288760336424e-14,4.736951571734001e-15,-4.14,-4.98,-4.6525,-4.745,-4.98,0.3110767590161634,-0.20000000000000018
1 -> 2,0.11908500000000005,0.11908499999999995,0.11908500000000002,0.11908500000000004,0.11908500000000005,3.98609107286759e-17,2.312964634635743e-17,84.0,84.0,84.0,84.0,84.0,0.0,0.0,32.23000000000001,32.229999999999976,32.23,32.230000000000004,32.23000000000001,1.507288760336424e-14,4.736951571734001e-15,0.44,-3.99,-1.9000000000000001,-2.025,-3.99,1.6617310251662272,1.4766666666666668
1 -> 2,0.11908500000000005,0.11908499999999995,0.11908500000000002,0.11908500000000004,0.11908500000000005,3.98609107286759e-17,2.312964634635743e-17,84.0,84.0,84.0,84.0,84.0,0.0,0.0,32.23000000000001,32.229999999999976,32.23,32.230000000000004,32.23000000000001,1.507288760336424e-14,4.736951571734001e-15,0.44,-3.99,-1.9000000000000001,-2.025,-3.99,1.6617310251662272,1.4766666666666668
1 -> 2,0.11908500000000005,0.11908499999999995,0.11908500000000002,0.11908500000000004,0.11908500000000005,3.98609107286759e-17,2.312964634635743e-17,84.0,84.0,84.0,84.0,84.0,0.0,0.0,32.23000000000001,32.229999999999976,32.23,32.230000000000004,32.23000000000001,1.507288760336424e-14,4.736951571734001e-15,5.23,2.11,3.8825000000000003,4.095,2.11,1.1853559591953804,1.0400000000000003
1 -> 2,0.11908500000000005,0.11908499999999995,0.11908500000000002,0.11908500000000004,0.11908500000000005,3.98609107286759e-17,2.312964634635743e-17,84.0,84.0,84.0,84.0,84.0,0.0,0.0,32.23000000000001,32.229999999999976,32.23,32.230000000000004,32.23000000000001,1.507288760336424e-14,4.736951571734001e-15,5.23,2.11,3.8825000000000003,4.095,2.11,1.1853559591953804,1.0400000000000003
1 -> 2,0.11524300000000005,0.1152429999999999,0.115243,0.11524300000000001,0.11524300000000005,6.397344083151129e-17,2.312964634635743e-17,84.0,84.0,84.0,84.0,84.0,0.0,0.0,32.23000000000001,32.229999999999976,32.23,32.230000000000004,32.23000000000001,1.507288760336424e-14,4.736951571734001e-15,5.32,3.56,4.55,4.66,3.56,0.6711929677819936,-0.5866666666666668
1 -> 2,0.11524300000000005,0.1152429999999999,0.115243,0.11524300000000001,0.11524300000000005,6.397344083151129e-17,2.312964634635743e-17,84.0,84.0,84.0,84.0,84.0,0.0,0.0,32.23000000000001,32.229999999999976,32.23,32.230000000000004,32.23000000000001,1.507288760336424e-14,4.736951571734001e-15,5.32,3.56,4.55,4.66,3.56,0.6711929677819936,-0.5866666666666668
1 -> 2,0.11524300000000005,0.1152429999999999,0.115243,0.11524300000000001,0.11524300000000005,6.397344083151129e-17,2.312964634635743e-17,84.0,84.0,84.0,84.0,84.0,0.0,0.0,32.23000000000001,32.229999999999976,32.23,32.230000000000004,32.23000000000001,1.507288760336424e-14,4.736951571734001e-15,2.85,2.17,2.4125,2.315,2.17,0.26137855688636746,-0.19333333333333336
1 -> 2,0.11524300000000005,0.1152429999999999,0.115243,0.11524300000000001,0.11524300000000005,6.397344083151129e-17,2.312964634635743e-17,84.0,84.0,84.0,84.0,84.0,0.0,0.0,32.23000000000001,32.229999999999976,32.23,32.230000000000004,32.23000000000001,1.507288760336424e-14,4.736951571734001e-15,2.85,2.17,2.4125,2.315,2.17,0.26137855688636746,-0.19333333333333336
1 -> 2,0.11524300000000005,0.1152429999999999,0.115243,0.11524300000000001,0.11524300000000005,6.397344083151129e-17,2.312964634635743e-17,84.0,84.0,84.0,84.0,84.0,0.0,0.0,32.23000000000001,32.229999999999976,32.23,32.230000000000004,32.23000000000001,1.507288760336424e-14,4.736951571734001e-15,3.19,2.55,2.9374999999999996,3.005,2.55,0.25212843949066915,0.21333333333333337
1 -> 2,0.11524300000000005,0.1152429999999999,0.115243,0.11524300000000001,0.11524300000000005,6.397344083151129e-17,2.312964634635743e-17,84.0,84.0,84.0,84.0,84.0,0.0,0.0,32.23000000000001,32.229999999999976,32.23,32.230000000000004,32.23000000000001,1.507288760336424e-14,4.736951571734001e-15,3.19,2.55,2.9374999999999996,3.005,2.55,0.25212843949066915,0.21333333333333337
1 -> 2,0.11524300000000005,0.1152429999999999,0.115243,0.11524300000000001,0.11524300000000005,6.397344083151129e-17,2.312964634635743e-17,84.0,84.0,84.0,84.0,84.0,0.0,0.0,32.23000000000001,32.229999999999976,32.23,32.230000000000004,32.23000000000001,1.507288760336424e-14,4.736951571734001e-15,3.02,1.15,2.1825,2.2800000000000002,1.15,0.705562718686298,-0.6233333333333334
1 -> 2,0.11524300000000005,0.1152429999999999,0.115243,0.11524300000000001,0.11524300000000005,6.397344083151129e-17,2.312964634635743e-17,84.0,84.0,84.0,84.0,84.0,0.0,0.0,32.23000000000001,32.229999999999976,32.23,32.230000000000004,32.23000000000001,1.507288760336424e-14,4.736951571734001e-15,3.02,1.15,2.1825,2.2800000000000002,1.15,0.705562718686298,-0.6233333333333334
1 -> 2,0.11908500000000005,0.11908499999999995,0.11908500000000002,0.11908500000000004,0.11908500000000005,3.98609107286759e-17,2.312964634635743e-17,84.0,84.0,84.0,84.0,84.0,0.0,0.0,32.23000000000001,32.229999999999976,32.23,32.230000000000004,32.23000000000001,1.507288760336424e-14,4.736951571734001e-15,0.31,-1.14,-0.5325,-0.65,-1.14,0.552647039257427,-0.4833333333333332
1 -> 2,0.11908500000000005,0.11908499999999995,0.11908500000000002,0.11908500000000004,0.11908500000000005,3.98609107286759e-17,2.312964634635743e-17,84.0,84.0,84.0,84.0,84.0,0.0,0.0,32.23000000000001,32.229999999999976,32.23,32.230000000000004,32.23000000000001,1.507288760336424e-14,4.736951571734001e-15,0.31,-1.14,-0.5325,-0.65,-1.14,0.552647039257427,-0.4833333333333332
1 -> 2,0.11908500000000005,0.11908499999999995,0.11908500000000002,0.11908500000000004,0.11908500000000005,3.98609107286759e-17,2.312964634635743e-17,84.0,84.0,84.0,84.0,84.0,0.0,0.0,32.23000000000001,32.229999999999976,32.23,32.230000000000004,32.23000000000001,1.507288760336424e-14,4.736951571734001e-15,-1.28,-3.04,-1.9774999999999998,-1.795,-3.04,0.6769924297951935,-0.5866666666666667
1 -> 2,0.11908500000000005,0.11908499999999995,0.11908500000000002,0.11908500000000004,0.11908500000000005,3.98609107286759e-17,2.312964634635743e-17,84.0,84.0,84.0,84.0,84.0,0.0,0.0,32.23000000000001,32.229999999999976,32.23,32.230000000000004,32.23000000000001,1.507288760336424e-14,4.736951571734001e-15,-1.28,-3.04,-1.9774999999999998,-1.795,-3.04,0.6769924297951935,-0.5866666666666667
1 -> 2,0.11908500000000005,0.11908499999999995,0.11908500000000002,0.11908500000000004,0.11908500000000005,3.98609107286759e-17,2.312964634635743e-17,84.0,84.0,84.0,84.0,84.0,0.0,0.0,32.23000000000001,32.229999999999976,32.23,32.230000000000004,32.23000000000001,1.507288760336424e-14,4.736951571734001e-15,-4.37,-8.1,-6.370000000000001,-6.505,-8.1,1.4065738515982726,-1.2433333333333332
1 -> 2,0.11908500000000005,0.11908499999999995,0.11908500000000002,0.11908500000000004,0.11908500000000005,3.98609107286759e-17,2.312964634635743e-17,84.0,84.0,84.0,84.0,84.0,0.0,0.0,32.23000000000001,32.229999999999976,32.23,32.230000000000004,32.23000000000001,1.507288760336424e-14,4.736951571734001e-15,-4.37,-8.1,-6.370000000000001,-6.505,-8.1,1.4065738515982726,-1.2433333333333332
1 -> 2,0.11908500000000005,0.11908499999999995,0.11908500000000002,0.11908500000000004,0.11908500000000005,3.98609107286759e-17,2.312964634635743e-17,84.0,84.0,84.0,84.0,84.0,0.0,0.0,32.23000000000001,32.229999999999976,32.23,32.230000000000004,32.23000000000001,1.507288760336424e-14,4.736951571734001e-15,-5.59,-8.43,-7.305,-7.6,-8.43,1.1023951197279493,0.9466666666666667
1 -> 2,0.11908500000000005,0.11908499999999995,0.11908500000000002,0.11908500000000004,0.11908500000000005,3.98609107286759e-17,2.312964634635743e-17,84.0,84.0,84.0,84.0,84.0,0.0,0.0,32.23000000000001,32.229999999999976,32.23,32.230000000000004,32.23000000000001,1.507288760336424e-14,4.736951571734001e-15,-5.59,-8.43,-7.305,-7.6,-8.43,1.1023951197279493,0.9466666666666667
1 -> 2,0.11652400000000006,0.11652399999999997,0.11652400000000002,0.11652400000000002,0.11652400000000006,3.863412619563315e-17,4.625929269271485e-18,85.8,85.8,85.8,85.8,85.8,0.0,0.0,32.23000000000001,32.229999999999976,32.23,32.230000000000004,32.23000000000001,1.507288760336424e-14,4.736951571734001e-15,2.04,-3.71,-0.7575000000000001,-0.6799999999999999,-3.71,2.151480594846256,1.9166666666666667
1 -> 2,0.11652400000000006,0.11652399999999997,0.11652400000000002,0.11652400000000002,0.11652400000000006,3.863412619563315e-17,4.625929269271485e-18,85.8,85.8,85.8,85.8,85.8,0.0,0.0,32.23000000000001,32.229999999999976,32.23,32.230000000000004,32.23000000000001,1.507288760336424e-14,4.736951571734001e-15,2.04,-3.71,-0.7575000000000001,-0.6799999999999999,-3.71,2.151480594846256,1.9166666666666667
1 -> 2,0.11652400000000006,0.11652399999999997,0.11652400000000002,0.11652400000000002,0.11652400000000006,3.863412619563315e-17,4.625929269271485e-18,85.8,85.8,85.8,85.8,85.8,0.0,0.0,32.23000000000001,32.229999999999976,32.23,32.230000000000004,32.23000000000001,1.507288760336424e-14,4.736951571734001e-15,4.43,3.37,4.0375,4.175,3.37,0.3992101576863994,0.2666666666666666
1 -> 2,0.11652400000000006,0.11652399999999997,0.11652400000000002,0.11652400000000002,0.11652400000000006,3.863412619563315e-17,4.625929269271485e-18,85.8,85.8,85.8,85.8,85.8,0.0,0.0,32.23000000000001,32.229999999999976,32.23,32.230000000000004,32.23000000000001,1.507288760336424e-14,4.736951571734001e-15,4.43,3.37,4.0375,4.175,3.37,0.3992101576863994,0.2666666666666666
1 -> 2,0.11652400000000006,0.11652399999999997,0.11652400000000002,0.11652400000000002,0.11652400000000006,3.863412619563315e-17,4.625929269271485e-18,85.8,85.8,85.8,85.8,85.8,0.0,0.0,32.23000000000001,32.229999999999976,32.23,32.230000000000004,32.23000000000001,1.507288760336424e-14,4.736951571734001e-15,3.53,1.6,2.4724999999999997,2.38,1.6,0.7317231375322226,-0.6433333333333332
1 -> 2,0.11652400000000006,0.11652399999999997,0.11652400000000002,0.11652400000000002,0.11652400000000006,3.863412619563315e-17,4.625929269271485e-18,85.8,85.8,85.8,85.8,85.8,0.0,0.0,32.23000000000001,32.229999999999976,32.23,32.230000000000004,32.23000000000001,1.507288760336424e-14,4.736951571734001e-15,3.53,1.6,2.4724999999999997,2.38,1.6,0.7317231375322226,-0.6433333333333332
1 -> 2,0.11652400000000006,0.11652399999999997,0.11652400000000002,0.11652400000000002,0.11652400000000006,3.863412619563315e-17,4.625929269271485e-18,85.8,85.8,85.8,85.8,85.8,0.0,0.0,32.23000000000001,32.229999999999976,32.23,32.230000000000004,32.23000000000001,1.507288760336424e-14,4.736951571734001e-15,1.71,1.48,1.6099999999999999,1.625,1.48,0.08860022573334674,0.06333333333333331
1 -> 2,0.11652400000000006,0.11652399999999997,0.11652400000000002,0.11652400000000002,0.11652400000000006,3.863412619563315e-17,4.625929269271485e-18,85.8,85.8,85.8,85.8,85.8,0.0,0.0,32.23000000000001,32.229999999999976,32.23,32.230000000000004,32.23000000000001,1.507288760336424e-14,4.736951571734001e-15,1.71,1.48,1.6099999999999999,1.625,1.48,0.08860022573334674,0.06333333333333331
1 -> 2,0.12036500000000006,0.12036499999999999,0.12036500000000003,0.12036500000000003,0.12036500000000006,2.943923360032078e-17,9.25185853854297e-18,85.8,85.8,85.8,85.8,85.8,0.0,0.0,32.23000000000001,32.229999999999976,32.23,32.230000000000004,32.23000000000001,1.507288760336424e-14,4.736951571734001e-15,1.39,-0.37,0.54,0.5700000000000001,-0.37,0.6604165352260647,-0.5866666666666666
1 -> 2,0.12036500000000006,0.12036499999999999,0.12036500000000003,0.12036500000000003,0.12036500000000006,2.943923360032078e-17,9.25185853854297e-18,85.8,85.8,85.8,85.8,85.8,0.0,0.0,32.23000000000001,32.229999999999976,32.23,32.230000000000004,32.23000000000001,1.507288760336424e-14,4.736951571734001e-15,1.39,-0.37,0.54,0.5700000000000001,-0.37,0.6604165352260647,-0.5866666666666666
1 -> 2,0.12036500000000006,0.12036499999999999,0.12036500000000003,0.12036500000000003,0.12036500000000006,2.943923360032078e-17,9.25185853854297e-18,85.8,85.8,85.8,85.8,85.8,0.0,0.0,32.23000000000001,32.229999999999976,32.23,32.230000000000004,32.23000000000001,1.507288760336424e-14,4.736951571734001e-15,-0.96,-2.55,-1.765,-1.775,-2.55,0.5926423879541522,-0.5299999999999999
1 -> 2,0.12036500000000006,0.12036499999999999,0.12036500000000003,0.12036500000000003,0.12036500000000006,2.943923360032078e-17,9.25185853854297e-18,85.8,85.8,85.8,85.8,85.8,0.0,0.0,32.23000000000001,32.229999999999976,32.23,32.230000000000004,32.23000000000001,1.507288760336424e-14,4.736951571734001e-15,-0.96,-2.55,-1.765,-1.775,-2.55,0.5926423879541522,-0.5299999999999999
1 -> 2,0.12036500000000006,0.12036499999999999,0.12036500000000003,0.12036500000000003,0.12036500000000006,2.943923360032078e-17,9.25185853854297e-18,85.8,85.8,85.8,85.8,85.8,0.0,0.0,32.23000000000001,32.229999999999976,32.23,32.230000000000004,32.23000000000001,1.507288760336424e-14,4.736951571734001e-15,-2.99,-3.69,-3.38,-3.42,-3.69,0.26048032555262207,-0.23333333333333325
1 -> 2,0.12036500000000006,0.12036499999999999,0.12036500000000003,0.12036500000000003,0.12036500000000006,2.943923360032078e-17,9.25185853854297e-18,85.8,85.8,85.8,85.8,85.8,0.0,0.0,32.23000000000001,32.229999999999976,32.23,32.230000000000004,32.23000000000001,1.507288760336424e-14,4.736951571734001e-15,-2.99,-3.69,-3.38,-3.42,-3.69,0.26048032555262207,-0.23333333333333325
1 -> 2,0.12036500000000006,0.12036499999999999,0.12036500000000003,0.12036500000000003,0.12036500000000006,2.943923360032078e-17,9.25185853854297e-18,85.8,85.8,85.8,85.8,85.8,0.0,0.0,32.23000000000001,32.229999999999976,32.23,32.230000000000004,32.23000000000001,1.507288760336424e-14,4.736951571734001e-15,-3.94,-6.2,-4.9325,-4.795,-6.2,0.8552594635547742,-0.7533333333333334
1 -> 2,0.12036500000000006,0.12036499999999999,0.12036500000000003,0.12036500000000003,0.12036500000000006,2.943923360032078e-17,9.25185853854297e-18,85.8,85.8,85.8,85.8,85.8,0.0,0.0,32.23000000000001,32.229999999999976,32.23,32.230000000000004,32.23000000000001,1.507288760336424e-14,4.736951571734001e-15,-3.94,-6.2,-4.9325,-4.795,-6.2,0.8552594635547742,-0.7533333333333334
1 -> 2,0.12036500000000006,0.12036499999999999,0.12036500000000003,0.12036500000000003,0.12036500000000006,2.943923360032078e-17,9.25185853854297e-18,85.8,85.8,85.8,85.8,85.8,0.0,0.0,32.23000000000001,32.229999999999976,32.23,32.230000000000004,32.23000000000001,1.507288760336424e-14,4.736951571734001e-15,-7.32,-9.31,-8.502500000000001,-8.690000000000001,-9.31,0.7713421743947366,-0.6633333333333334
1 -> 2,0.12036500000000006,0.12036499999999999,0.12036500000000003,0.12036500000000003,0.12036500000000006,2.943923360032078e-17,9.25185853854297e-18,85.8,85.8,85.8,85.8,85.8,0.0,0.0,32.23000000000001,32.229999999999976,32.23,32.230000000000004,32.23000000000001,1.507288760336424e-14,4.736951571734001e-15,-7.32,-9.31,-8.502500000000001,-8.690000000000001,-9.31,0.7713421743947366,-0.6633333333333334
1 -> 2,0.12036500000000006,0.12036499999999999,0.12036500000000003,0.12036500000000003,0.12036500000000006,2.943923360032078e-17,9.25185853854297e-18,85.8,85.8,85.8,85.8,85.8,0.0,0.0,32.23000000000001,32.229999999999976,32.23,32.230000000000004,32.23000000000001,1.507288760336424e-14,4.736951571734001e-15,-5.22,-9.04,-7.35,-7.57,-9.04,1.4435026844450272,1.2733333333333332
1 -> 2,0.12036500000000006,0.12036499999999999,0.12036500000000003,0.12036500000000003,0.12036500000000006,2.943923360032078e-17,9.25185853854297e-18,85.8,85.8,85.8,85.8,85.8,0.0,0.0,32.23000000000001,32.229999999999976,32.23,32.230000000000004,32.23000000000001,1.507288760336424e-14,4.736951571734001e-15,-5.22,-9.04,-7.35,-7.57,-9.04,1.4435026844450272,1.2733333333333332
1 -> 2,0.12036500000000006,0.12036499999999999,0.12036500000000003,0.12036500000000003,0.12036500000000006,2.943923360032078e-17,9.25185853854297e-18,85.8,85.8,85.8,85.8,85.8,0.0,0.0,32.23000000000001,32.229999999999976,32.23,32.230000000000004,32.23000000000001,1.507288760336424e-14,4.736951571734001e-15,1.45,-3.32,-0.7725,-0.61,-3.32,1.7907313450096303,1.5899999999999999
1 -> 2,0.12036500000000006,0.12036499999999999,0.12036500000000003,0.12036500000000003,0.12036500000000006,2.943923360032078e-17,9.25185853854297e-18,85.8,85.8,85.8,85.8,85.8,0.0,0.0,32.23000000000001,32.229999999999976,32.23,32.230000000000004,32.23000000000001,1.507288760336424e-14,4.736951571734001e-15,1.45,-3.32,-0.7725,-0.61,-3.32,1.7907313450096303,1.5899999999999999
1 -> 2,0.12036500000000006,0.12036499999999999,0.12036500000000003,0.12036500000000003,0.12036500000000006,2.943923360032078e-17,9.25185853854297e-18,85.8,85.8,85.8,85.8,85.8,0.0,0.0,32.23000000000001,32.229999999999976,32.23,32.230000000000004,32.23000000000001,1.507288760336424e-14,4.736951571734001e-15,2.75,2.24,2.5825,2.67,2.24,0.2024073862288626,0.1566666666666666
1 -> 2,0.12036500000000006,0.12036499999999999,0.12036500000000003,0.12036500000000003,0.12036500000000006,2.943923360032078e-17,9.25185853854297e-18,85.8,85.8,85.8,85.8,85.8,0.0,0.0,32.23000000000001,32.229999999999976,32.23,32.230000000000004,32.23000000000001,1.507288760336424e-14,4.736951571734001e-15,2.75,2.24,2.5825,2.67,2.24,0.2024073862288626,0.1566666666666666
1 -> 2,0.11780400000000006,0.11780399999999995,0.11780400000000002,0.11780400000000003,0.11780400000000006,4.6027415078689346e-17,1.850371707708594e-17,85.8,85.8,85.8,85.8,85.8,0.0,0.0,32.23000000000001,32.229999999999976,32.23,32.230000000000004,32.23000000000001,1.507288760336424e-14,4.736951571734001e-15,2.57,1.56,2.1075,2.15,1.56,0.3814691992808856,-0.3366666666666666
1 -> 2,0.11780400000000006,0.11780399999999995,0.11780400000000002,0.11780400000000003,0.11780400000000006,4.6027415078689346e-17,1.850371707708594e-17,85.8,85.8,85.8,85.8,85.8,0.0,0.0,32.23000000000001,32.229999999999976,32.23,32.230000000000004,32.23000000000001,1.507288760336424e-14,4.736951571734001e-15,2.57,1.56,2.1075,2.15,1.56,0.3814691992808856,-0.3366666666666666
1 -> 2,0.11780400000000006,0.11780399999999995,0.11780400000000002,0.11780400000000003,0.11780400000000006,4.6027415078689346e-17,1.850371707708594e-17,85.8,85.8,85.8,85.8,85.8,0.0,0.0,32.23000000000001,32.229999999999976,32.23,32.230000000000004,32.23000000000001,1.507288760336424e-14,4.736951571734001e-15,1.35,1.0,1.15,1.125,1.0,0.13435028842544405,0.05333333333333338
1 -> 2,0.11780400000000006,0.11780399999999995,0.11780400000000002,0.11780400000000003,0.11780400000000006,4.6027415078689346e-17,1.850371707708594e-17,85.8,85.8,85.8,85.8,85.8,0.0,0.0,32.23000000000001,32.229999999999976,32.23,32.230000000000004,32.23000000000001,1.507288760336424e-14,4.736951571734001e-15,1.35,1.0,1.15,1.125,1.0,0.13435028842544405,0.05333333333333338
1 -> 2,0.11780400000000006,0.11780399999999995,0.11780400000000002,0.11780400000000003,0.11780400000000006,4.6027415078689346e-17,1.850371707708594e-17,85.8,85.8,85.8,85.8,85.8,0.0,0.0,32.23000000000001,32.229999999999976,32.23,32.230000000000004,32.23000000000001,1.507288760336424e-14,4.736951571734001e-15,2.76,1.76,2.305,2.35,1.76,0.37613162589710525,0.33333333333333326
1 -> 2,0.11780400000000006,0.11780399999999995,0.11780400000000002,0.11780400000000003,0.11780400000000006,4.6027415078689346e-17,1.850371707708594e-17,85.8,85.8,85.8,85.8,85.8,0.0,0.0,32.23000000000001,32.229999999999976,32.23,32.230000000000004,32.23000000000001,1.507288760336424e-14,4.736951571734001e-15,2.76,1.76,2.305,2.35,1.76,0.37613162589710525,0.33333333333333326
1 -> 2,0.11780400000000006,0.11780399999999995,0.11780400000000002,0.11780400000000003,0.11780400000000006,4.6027415078689346e-17,1.850371707708594e-17,85.8,85.8,85.8,85.8,85.8,0.0,0.0,32.23000000000001,32.229999999999976,32.23,32.230000000000004,32.23000000000001,1.507288760336424e-14,4.736951571734001e-15,3.07,2.83,2.98,3.01,3.07,0.09949874371066189,-0.040000000000000036
1 -> 2,0.11780400000000006,0.11780399999999995,0.11780400000000002,0.11780400000000003,0.11780400000000006,4.6027415078689346e-17,1.850371707708594e-17,85.8,85.8,85.8,85.8,85.8,0.0,0.0,32.23000000000001,32.229999999999976,32.23,32.230000000000004,32.23000000000001,1.507288760336424e-14,4.736951571734001e-15,3.07,2.83,2.98,3.01,3.07,0.09949874371066189,-0.040000000000000036
1 -> 2,0.12164600000000006,0.12164599999999998,0.12164600000000003,0.12164600000000006,0.12164600000000006,3.469446951953614e-17,2.312964634635743e-17,85.33,85.33,85.33,85.33,85.33,0.0,0.0,32.23000000000001,32.229999999999976,32.23,32.230000000000004,32.23000000000001,1.507288760336424e-14,4.736951571734001e-15,2.27,-0.75,0.8125,0.865,-0.75,1.133983575718802,-1.0066666666666666
1 -> 2,0.12164600000000006,0.12164599999999998,0.12164600000000003,0.12164600000000006,0.12164600000000006,3.469446951953614e-17,2.312964634635743e-17,85.33,85.33,85.33,85.33,85.33,0.0,0.0,32.23000000000001,32.229999999999976,32.23,32.230000000000004,32.23000000000001,1.507288760336424e-14,4.736951571734001e-15,2.27,-0.75,0.8125,0.865,-0.75,1.133983575718802,-1.0066666666666666
1 -> 2,0.12164600000000006,0.12164599999999998,0.12164600000000003,0.12164600000000006,0.12164600000000006,3.469446951953614e-17,2.312964634635743e-17,85.33,85.33,85.33,85.33,85.33,0.0,0.0,32.23000000000001,32.229999999999976,32.23,32.230000000000004,32.23000000000001,1.507288760336424e-14,4.736951571734001e-15,-1.67,-2.75,-2.3475,-2.4850000000000003,-2.75,0.42428616522342566,-0.36000000000000004
1 -> 2,0.12164600000000006,0.12164599999999998,0.12164600000000003,0.12164600000000006,0.12164600000000006,3.469446951953614e-17,2.312964634635743e-17,85.33,85.33,85.33,85.33,85.33,0.0,0.0,32.23000000000001,32.229999999999976,32.23,32.230000000000004,32.23000000000001,1.507288760336424e-14,4.736951571734001e-15,-1.67,-2.75,-2.3475,-2.4850000000000003,-2.75,0.42428616522342566,-0.36000000000000004
1 -> 2,0.12164600000000006,0.12164599999999998,0.12164600000000003,0.12164600000000006,0.12164600000000006,3.469446951953614e-17,2.312964634635743e-17,85.33,85.33,85.33,85.33,85.33,0.0,0.0,32.23000000000001,32.229999999999976,32.23,32.230000000000004,32.23000000000001,1.507288760336424e-14,4.736951571734001e-15,-0.58,-2.6,-1.7325000000000002,-1.875,-2.6,0.7658124770464373,0.6733333333333333
1 -> 2,0.12164600000000006,0.12164599999999998,0.12164600000000003,0.12164600000000006,0.12164600000000006,3.469446951953614e-17,2.312964634635743e-17,85.33,85.33,85.33,85.33,85.33,0.0,0.0,32.23000000000001,32.229999999999976,32.23,32.230000000000004,32.23000000000001,1.507288760336424e-14,4.736951571734001e-15,-0.58,-2.6,-1.7325000000000002,-1.875,-2.6,0.7658124770464373,0.6733333333333333
1 -> 2,0.12164600000000006,0.12164599999999998,0.12164600000000003,0.12164600000000006,0.12164600000000006,3.469446951953614e-17,2.312964634635743e-17,85.33,85.33,85.33,85.33,85.33,0.0,0.0,32.23000000000001,32.229999999999976,32.23,32.230000000000004,32.23000000000001,1.507288760336424e-14,4.736951571734001e-15,4.48,0.65,2.63,2.6950000000000003,0.65,1.4372369324505965,1.2766666666666668
1 -> 2,0.12164600000000006,0.12164599999999998,0.12164600000000003,0.12164600000000006,0.12164600000000006,3.469446951953614e-17,2.312964634635743e-17,85.33,85.33,85.33,85.33,85.33,0.0,0.0,32.23000000000001,32.229999999999976,32.23,32.230000000000004,32.23000000000001,1.507288760336424e-14,4.736951571734001e-15,4.48,0.65,2.63,2.6950000000000003,0.65,1.4372369324505965,1.2766666666666668
1 -> 2,0.11652400000000006,0.11652399999999997,0.11652400000000002,0.11652400000000002,0.11652400000000006,3.863412619563315e-17,4.625929269271485e-18,85.33,85.33,85.33,85.33,85.33,0.0,0.0,32.23000000000001,32.229999999999976,32.23,32.230000000000004,32.23000000000001,1.507288760336424e-14,4.736951571734001e-15,5.52,5.02,5.294999999999999,5.32,5.02,0.19202864369671524,-0.06666666666666672
1 -> 2,0.11652400000000006,0.11652399999999997,0.11652400000000002,0.11652400000000002,0.11652400000000006,3.863412619563315e-17,4.625929269271485e-18,85.33,85.33,85.33,85.33,85.33,0.0,0.0,32.23000000000001,32.229999999999976,32.23,32.230000000000004,32.23000000000001,1.507288760336424e-14,4.736951571734001e-15,5.52,5.02,5.294999999999999,5.32,5.02,0.19202864369671524,-0.06666666666666672
1 -> 2,0.11652400000000006,0.11652399999999997,0.11652400000000002,0.11652400000000002,0.11652400000000006,3.863412619563315e-17,4.625929269271485e-18,85.33,85.33,85.33,85.33,85.33,0.0,0.0,32.23000000000001,32.229999999999976,32.23,32.230000000000004,32.23000000000001,1.507288760336424e-14,4.736951571734001e-15,4.48,3.31,3.82,3.745,3.31,0.44469090388718335,-0.3900000000000001
1 -> 2,0.11652400000000006,0.11652399999999997,0.11652400000000002,0.11652400000000002,0.11652400000000006,3.863412619563315e-17,4.625929269271485e-18,85.33,85.33,85.33,85.33,85.33,0.0,0.0,32.23000000000001,32.229999999999976,32.23,32.230000000000004,32.23000000000001,1.507288760336424e-14,4.736951571734001e-15,4.48,3.31,3.82,3.745,3.31,0.44469090388718335,-0.3900000000000001
1 -> 2,0.11652400000000006,0.11652399999999997,0.11652400000000002,0.11652400000000002,0.11652400000000006,3.863412619563315e-17,4.625929269271485e-18,85.33,85.33,85.33,85.33,85.33,0.0,0.0,32.23000000000001,32.229999999999976,32.23,32.230000000000004,32.23000000000001,1.507288760336424e-14,4.736951571734001e-15,3.22,2.81,3.0675000000000003,3.12,2.81,0.15817316460133182,-0.13666666666666671
1 -> 2,0.11652400000000006,0.11652399999999997,0.11652400000000002,0.11652400000000002,0.11652400000000006,3.863412619563315e-17,4.625929269271485e-18,85.33,85.33,85.33,85.33,85.33,0.0,0.0,32.23000000000001,32.229999999999976,32.23,32.230000000000004,32.23000000000001,1.507288760336424e-14,4.736951571734001e-15,3.22,2.81,3.0675000000000003,3.12,2.81,0.15817316460133182,-0.13666666666666671
1 -> 2,0.11652400000000006,0.11652399999999997,0.11652400000000002,0.11652400000000002,0.11652400000000006,3.863412619563315e-17,4.625929269271485e-18,85.33,85.33,85.33,85.33,85.33,0.0,0.0,32.23000000000001,32.229999999999976,32.23,32.230000000000004,32.23000000000001,1.507288760336424e-14,4.736951571734001e-15,2.34,-0.04,1.2025,1.255,-0.04,0.8927030581329941,-0.7933333333333333
1 -> 2,0.11652400000000006,0.11652399999999997,0.11652400000000002,0.11652400000000002,0.11652400000000006,3.863412619563315e-17,4.625929269271485e-18,85.33,85.33,85.33,85.33,85.33,0.0,0.0,32.23000000000001,32.229999999999976,32.23,32.230000000000004,32.23000000000001,1.507288760336424e-14,4.736951571734001e-15,2.34,-0.04,1.2025,1.255,-0.04,0.8927030581329941,-0.7933333333333333
1 -> 2,0.11780400000000006,0.11780399999999995,0.11780400000000002,0.11780400000000003,0.11780400000000006,4.6027415078689346e-17,1.850371707708594e-17,85.33,85.33,85.33,85.33,85.33,0.0,0.0,32.23000000000001,32.229999999999976,32.23,32.230000000000004,32.23000000000001,1.507288760336424e-14,4.736951571734001e-15,-0.93,-3.33,-2.145,-2.16,-3.33,0.8945529609810701,-0.7999999999999999
1 -> 2,0.11780400000000006,0.11780399999999995,0.11780400000000002,0.11780400000000003,0.11780400000000006,4.6027415078689346e-17,1.850371707708594e-17,85.33,85.33,85.33,85.33,85.33,0.0,0.0,32.23000000000001,32.229999999999976,32.23,32.230000000000004,32.23000000000001,1.507288760336424e-14,4.736951571734001e-15,-0.93,-3.33,-2.145,-2.16,-3.33,0.8945529609810701,-0.7999999999999999
1 -> 2,0.11780400000000006,0.11780399999999995,0.11780400000000002,0.11780400000000003,0.11780400000000006,4.6027415078689346e-17,1.850371707708594e-17,85.33,85.33,85.33,85.33,85.33,0.0,0.0,32.23000000000001,32.229999999999976,32.23,32.230000000000004,32.23000000000001,1.507288760336424e-14,4.736951571734001e-15,-4.1,-5.9,-5.0725,-5.145,-5.9,0.6781362326258643,-0.6000000000000002
1 -> 2,0.11780400000000006,0.11780399999999995,0.11780400000000002,0.11780400000000003,0.11780400000000006,4.6027415078689346e-17,1.850371707708594e-17,85.33,85.33,85.33,85.33,85.33,0.0,0.0,32.23000000000001,32.229999999999976,32.23,32.230000000000004,32.23000000000001,1.507288760336424e-14,4.736951571734001e-15,-4.1,-5.9,-5.0725,-5.145,-5.9,0.6781362326258643,-0.6000000000000002
1 -> 2,0.11780400000000006,0.11780399999999995,0.11780400000000002,0.11780400000000003,0.11780400000000006,4.6027415078689346e-17,1.850371707708594e-17,85.33,85.33,85.33,85.33,85.33,0.0,0.0,32.23000000000001,32.229999999999976,32.23,32.230000000000004,32.23000000000001,1.507288760336424e-14,4.736951571734001e-15,-4.02,-6.04,-5.245,-5.46,-6.04,0.7836293766826254,0.6733333333333335
1 -> 2,0.11780400000000006,0.11780399999999995,0.11780400000000002,0.11780400000000003,0.11780400000000006,4.6027415078689346e-17,1.850371707708594e-17,85.33,85.33,85.33,85.33,85.33,0.0,0.0,32.23000000000001,32.229999999999976,32.23,32.230000000000004,32.23000000000001,1.507288760336424e-14,4.736951571734001e-15,-4.02,-6.04,-5.245,-5.46,-6.04,0.7836293766826254,0.6733333333333335
1 -> 2,0.11780400000000006,0.11780399999999995,0.11780400000000002,0.11780400000000003,0.11780400000000006,4.6027415078689346e-17,1.850371707708594e-17,85.33,85.33,85.33,85.33,85.33,0.0,0.0,32.23000000000001,32.229999999999976,32.23,32.230000000000004,32.23000000000001,1.507288760336424e-14,4.736951571734001e-15,2.32,-2.58,-0.11250000000000004,-0.09499999999999997,-2.58,1.8326398309542442,1.6333333333333335
1 -> 2,0.11780400000000006,0.11780399999999995,0.11780400000000002,0.11780400000000003,0.11780400000000006,4.6027415078689346e-17,1.850371707708594e-17,85.33,85.33,85.33,85.33,85.33,0.0,0.0,32.23000000000001,32.229999999999976,32.23,32.230000000000004,32.23000000000001,1.507288760336424e-14,4.736951571734001e-15,2.32,-2.58,-0.11250000000000004,-0.09499999999999997,-2.58,1.8326398309542442,1.6333333333333335
1 -> 2,0.12292600000000005,0.12292599999999998,0.12292600000000001,0.12292600000000004,0.12292600000000005,3.254629732262919e-17,9.25185853854297e-18,85.33,85.33,85.33,85.33,85.33,0.0,0.0,32.23000000000001,32.229999999999976,32.23,32.230000000000004,32.23000000000001,1.507288760336424e-14,4.736951571734001e-15,5.12,3.62,4.59,4.81,3.62,0.6007495318350234,0.5
1 -> 2,0.12292600000000005,0.12292599999999998,0.12292600000000001,0.12292600000000004,0.12292600000000005,3.254629732262919e-17,9.25185853854297e-18,85.33,85.33,85.33,85.33,85.33,0.0,0.0,32.23000000000001,32.229999999999976,32.23,32.230000000000004,32.23000000000001,1.507288760336424e-14,4.736951571734001e-15,5.12,3.62,4.59,4.81,3.62,0.6007495318350234,0.5
1 -> 2,0.12292600000000005,0.12292599999999998,0.12292600000000001,0.12292600000000004,0.12292600000000005,3.254629732262919e-17,9.25185853854297e-18,85.33,85.33,85.33,85.33,85.33,0.0,0.0,32.23000000000001,32.229999999999976,32.23,32.230000000000004,32.23000000000001,1.507288760336424e-14,4.736951571734001e-15,4.77,2.63,3.7299999999999995,3.76,2.63,0.8034612622896015,-0.7133333333333333
1 -> 2,0.12292600000000005,0.12292599999999998,0.12292600000000001,0.12292600000000004,0.12292600000000005,3.254629732262919e-17,9.25185853854297e-18,85.33,85.33,85.33,85.33,85.33,0.0,0.0,32.23000000000001,32.229999999999976,32.23,32.230000000000004,32.23000000000001,1.507288760336424e-14,4.736951571734001e-15,4.77,2.63,3.7299999999999995,3.76,2.63,0.8034612622896015,-0.7133333333333333
1 -> 2,0.12292600000000005,0.12292599999999998,0.12292600000000001,0.12292600000000004,0.12292600000000005,3.254629732262919e-17,9.25185853854297e-18,85.33,85.33,85.33,85.33,85.33,0.0,0.0,32.23000000000001,32.229999999999976,32.23,32.230000000000004,32.23000000000001,1.507288760336424e-14,4.736951571734001e-15,2.01,0.85,1.3924999999999998,1.355,0.85,0.43210965043609006,-0.38666666666666655
1 -> 2,0.12292600000000005,0.12292599999999998,0.12292600000000001,0.12292600000000004,0.12292600000000005,3.254629732262919e-17,9.25185853854297e-18,85.33,85.33,85.33,85.33,85.33,0.0,0.0,32.23000000000001,32.229999999999976,32.23,32.230000000000004,32.23000000000001,1.507288760336424e-14,4.736951571734001e-15,2.01,0.85,1.3924999999999998,1.355,0.85,0.43210965043609006,-0.38666666666666655
1 -> 2,0.12292600000000005,0.12292599999999998,0.12292600000000001,0.12292600000000004,0.12292600000000005,3.254629732262919e-17,9.25185853854297e-18,85.33,85.33,85.33,85.33,85.33,0.0,0.0,32.23000000000001,32.229999999999976,32.23,32.230000000000004,32.23000000000001,1.507288760336424e-14,4.736951571734001e-15,0.53,-0.23,0.1175,0.08499999999999999,-0.23,0.28699956445959984,-0.25333333333333335
1 -> 2,0.12292600000000005,0.12292599999999998,0.12292600000000001,0.12292600000000004,0.12292600000000005,3.254629732262919e-17,9.25185853854297e-18,85.33,85.33,85.33,85.33,85.33,0.0,0.0,32.23000000000001,32.229999999999976,32.23,32.230000000000004,32.23000000000001,1.507288760336424e-14,4.736951571734001e-15,0.53,-0.23,0.1175,0.08499999999999999,-0.23,0.28699956445959984,-0.25333333333333335
1 -> 2,0.11908500000000005,0.11908499999999995,0.11908500000000002,0.11908500000000004,0.11908500000000005,3.98609107286759e-17,2.312964634635743e-17,86.71,86.71,86.71,86.71,86.71,0.0,0.0,32.23000000000001,32.229999999999976,32.23,32.230000000000004,32.23000000000001,1.507288760336424e-14,4.736951571734001e-15,-0.35,-1.33,-0.745,-0.65,-1.33,0.3745997864388073,-0.3266666666666667
1 -> 2,0.11908500000000005,0.11908499999999995,0.11908500000000002,0.11908500000000004,0.11908500000000005,3.98609107286759e-17,2.312964634635743e-17,86.71,86.71,86.71,86.71,86.71,0.0,0.0,32.23000000000001,32.229999999999976,32.23,32.230000000000004,32.23000000000001,1.507288760336424e-14,4.736951571734001e-15,-0.35,-1.33,-0.745,-0.65,-1.33,0.3745997864388073,-0.3266666666666667
1 -> 2,0.11908500000000005,0.11908499999999995,0.11908500000000002,0.11908500000000004,0.11908500000000005,3.98609107286759e-17,2.312964634635743e-17,86.71,86.71,86.71,86.71,86.71,0.0,0.0,32.23000000000001,32.229999999999976,32.23,32.230000000000004,32.23000000000001,1.507288760336424e-14,4.736951571734001e-15,-2.06,-4.2,-3.1925,-3.255,-4.2,0.8041571674741201,-0.7133333333333334
1 -> 2,0.11908500000000005,0.11908499999999995,0.11908500000000002,0.11908500000000004,0.11908500000000005,3.98609107286759e-17,2.312964634635743e-17,86.71,86.71,86.71,86.71,86.71,0.0,0.0,32.23000000000001,32.229999999999976,32.23,32.230000000000004,32.23000000000001,1.507288760336424e-14,4.736951571734001e-15,-2.06,-4.2,-3.1925,-3.255,-4.2,0.8041571674741201,-0.7133333333333334
1 -> 2,0.11908500000000005,0.11908499999999995,0.11908500000000002,0.11908500000000004,0.11908500000000005,3.98609107286759e-17,2.312964634635743e-17,86.71,86.71,86.71,86.71,86.71,0.0,0.0,32.23000000000001,32.229999999999976,32.23,32.230000000000004,32.23000000000001,1.507288760336424e-14,4.736951571734001e-15,-4.37,-4.67,-4.550000000000001,-4.58,-4.67,0.11379806676741037,0.05666666666666664
1 -> 2,0.11908500000000005,0.11908499999999995,0.11908500000000002,0.11908500000000004,0.11908500000000005,3.98609107286759e-17,2.312964634635743e-17,86.71,86.71,86.71,86.71,86.71,0.0,0.0,32.23000000000001,32.229999999999976,32.23,32.230000000000004,32.23000000000001,1.507288760336424e-14,4.736951571734001e-15,-4.37,-4.67,-4.550000000000001,-4.58,-4.67,0.11379806676741037,0.05666666666666664
1 -> 2,0.11908500000000005,0.11908499999999995,0.11908500000000002,0.11908500000000004,0.11908500000000005,3.98609107286759e-17,2.312964634635743e-17,86.71,86.71,86.71,86.71,86.71,0.0,0.0,32.23000000000001,32.229999999999976,32.23,32.230000000000004,32.23000000000001,1.507288760336424e-14,4.736951571734001e-15,-0.52,-3.88,-2.3474999999999997,-2.495,-3.88,1.264226542198826,1.1199999999999999
1 -> 2,0.11908500000000005,0.11908499999999995,0.11908500000000002,0.11908500000000004,0.11908500000000005,3.98609107286759e-17,2.312964634635743e-17,86.71,86.71,86.71,86.71,86.71,0.0,0.0,32.23000000000001,32.229999999999976,32.23,32.230000000000004,32.23000000000001,1.507288760336424e-14,4.736951571734001e-15,-0.52,-3.88,-2.3474999999999997,-2.495,-3.88,1.264226542198826,1.1199999999999999
1 -> 2,0.12164600000000006,0.12164599999999998,0.12164600000000003,0.12164600000000006,0.12164600000000006,3.469446951953614e-17,2.312964634635743e-17,86.71,86.71,86.71,86.71,86.71,0.0,0.0,32.23000000000001,32.229999999999976,32.23,32.230000000000004,32.23000000000001,1.507288760336424e-14,4.736951571734001e-15,4.41,0.99,2.8475,2.995,0.99,1.2864364539300028,1.14
1 -> 2,0.12164600000000006,0.12164599999999998,0.12164600000000003,0.12164600000000006,0.12164600000000006,3.469446951953614e-17,2.312964634635743e-17,86.71,86.71,86.71,86.71,86.71,0.0,0.0,32.23000000000001,32.229999999999976,32.23,32.230000000000004,32.23000000000001,1.507288760336424e-14,4.736951571734001e-15,4.41,0.99,2.8475,2.995,0.99,1.2864364539300028,1.14
1 -> 2,0.12164600000000006,0.12164599999999998,0.12164600000000003,0.12164600000000006,0.12164600000000006,3.469446951953614e-17,2.312964634635743e-17,86.71,86.71,86.71,86.71,86.71,0.0,0.0,32.23000000000001,32.229999999999976,32.23,32.230000000000004,32.23000000000001,1.507288760336424e-14,4.736951571734001e-15,4.91,4.04,4.6049999999999995,4.734999999999999,4.04,0.34369317712168795,-0.26999999999999985
1 -> 2,0.12164600000000006,0.12164599999999998,0.12164600000000003,0.12164600000000006,0.12164600000000006,3.469446951953614e-17,2.312964634635743e-17,86.71,86.71,86.71,86.71,86.71,0.0,0.0,32.23000000000001,32.229999999999976,32.23,32.230000000000004,32.23000000000001,1.507288760336424e-14,4.736951571734001e-15,4.91,4.04,4.6049999999999995,4.734999999999999,4.04,0.34369317712168795,-0.26999999999999985
1 -> 2,0.12164600000000006,0.12164599999999998,0.12164600000000003,0.12164600000000006,0.12164600000000006,3.469446951953614e-17,2.312964634635743e-17,86.71,86.71,86.71,86.71,86.71,0.0,0.0,32.23000000000001,32.229999999999976,32.23,32.230000000000004,32.23000000000001,1.507288760336424e-14,4.736951571734001e-15,3.3,1.42,2.2800000000000002,2.2,1.42,0.7089781378857883,-0.6266666666666666
1 -> 2,0.12164600000000006,0.12164599999999998,0.12164600000000003,0.12164600000000006,0.12164600000000006,3.469446951953614e-17,2.312964634635743e-17,86.71,86.71,86.71,86.71,86.71,0.0,0.0,32.23000000000001,32.229999999999976,32.23,32.230000000000004,32.23000000000001,1.507288760336424e-14,4.736951571734001e-15,3.3,1.42,2.2800000000000002,2.2,1.42,0.7089781378857883,-0.6266666666666666
1 -> 2,0.12164600000000006,0.12164599999999998,0.12164600000000003,0.12164600000000006,0.12164600000000006,3.469446951953614e-17,2.312964634635743e-17,86.71,86.71,86.71,86.71,86.71,0.0,0.0,32.23000000000001,32.229999999999976,32.23,32.230000000000004,32.23000000000001,1.507288760336424e-14,4.736951571734001e-15,1.59,1.21,1.3425,1.2850000000000001,1.21,0.15546301811041754,0.1266666666666667
1 -> 2,0.12164600000000006,0.12164599999999998,0.12164600000000003,0.12164600000000006,0.12164600000000006,3.469446951953614e-17,2.312964634635743e-17,86.71,86.71,86.71,86.71,86.71,0.0,0.0,32.23000000000001,32.229999999999976,32.23,32.230000000000004,32.23000000000001,1.507288760336424e-14,4.736951571734001e-15,1.59,1.21,1.3425,1.2850000000000001,1.21,0.15546301811041754,0.1266666666666667
1 -> 2,0.12036500000000006,0.12036499999999999,0.12036500000000003,0.12036500000000003,0.12036500000000006,2.943923360032078e-17,9.25185853854297e-18,86.71,86.71,86.71,86.71,86.71,0.0,0.0,32.23000000000001,32.229999999999976,32.23,32.230000000000004,32.23000000000001,1.507288760336424e-14,4.736951571734001e-15,2.02,1.73,1.9,1.9249999999999998,1.73,0.12144957801491114,-0.0366666666666667
1 -> 2,0.12036500000000006,0.12036499999999999,0.12036500000000003,0.12036500000000003,0.12036500000000006,2.943923360032078e-17,9.25185853854297e-18,86.71,86.71,86.71,86.71,86.71,0.0,0.0,32.23000000000001,32.229999999999976,32.23,32.230000000000004,32.23000000000001,1.507288760336424e-14,4.736951571734001e-15,2.02,1.73,1.9,1.9249999999999998,1.73,0.12144957801491114,-0.0366666666666667
1 -> 2,0.12036500000000006,0.12036499999999999,0.12036500000000003,0.12036500000000003,0.12036500000000006,2.943923360032078e-17,9.25185853854297e-18,86.71,86.71,86.71,86.71,86.71,0.0,0.0,32.23000000000001,32.229999999999976,32.23,32.230000000000004,32.23000000000001,1.507288760336424e-14,4.736951571734001e-15,1.14,-1.9,-0.325,-0.27,-1.9,1.1395942260295986,-1.0133333333333334
1 -> 2,0.12036500000000006,0.12036499999999999,0.12036500000000003,0.12036500000000003,0.12036500000000006,2.943923360032078e-17,9.25185853854297e-18,86.71,86.71,86.71,86.71,86.71,0.0,0.0,32.23000000000001,32.229999999999976,32.23,32.230000000000004,32.23000000000001,1.507288760336424e-14,4.736951571734001e-15,1.14,-1.9,-0.325,-0.27,-1.9,1.1395942260295986,-1.0133333333333334
1 -> 2,0.12036500000000006,0.12036499999999999,0.12036500000000003,0.12036500000000003,0.12036500000000006,2.943923360032078e-17,9.25185853854297e-18,86.71,86.71,86.71,86.71,86.71,0.0,0.0,32.23000000000001,32.229999999999976,32.23,32.230000000000004,32.23000000000001,1.507288760336424e-14,4.736951571734001e-15,-2.88,-4.13,-3.675,-3.8449999999999998,-4.13,0.4973178058344582,-0.4166666666666667
1 -> 2,0.12036500000000006,0.12036499999999999,0.12036500000000003,0.12036500000000003,0.12036500000000006,2.943923360032078e-17,9.25185853854297e-18,86.71,86.71,86.71,86.71,86.71,0.0,0.0,32.23000000000001,32.229999999999976,32.23,32.230000000000004,32.23000000000001,1.507288760336424e-14,4.736951571734001e-15,-2.88,-4.13,-3.675,-3.8449999999999998,-4.13,0.4973178058344582,-0.4166666666666667
1 -> 2,0.12036500000000006,0.12036499999999999,0.12036500000000003,0.12036500000000003,0.12036500000000006,2.943923360032078e-17,9.25185853854297e-18,86.71,86.71,86.71,86.71,86.71,0.0,0.0,32.23000000000001,32.229999999999976,32.23,32.230000000000004,32.23000000000001,1.507288760336424e-14,4.736951571734001e-15,-0.61,-3.79,-2.3549999999999995,-2.51,-3.79,1.1997187170332886,1.06
1 -> 2,0.12036500000000006,0.12036499999999999,0.12036500000000003,0.12036500000000003,0.12036500000000006,2.943923360032078e-17,9.25185853854297e-18,86.71,86.71,86.71,86.71,86.71,0.0,0.0,32.23000000000001,32.229999999999976,32.23,32.230000000000004,32.23000000000001,1.507288760336424e-14,4.736951571734001e-15,-0.61,-3.79,-2.3549999999999995,-2.51,-3.79,1.1997187170332886,1.06
1 -> 2,0.12164600000000006,0.12164599999999998,0.12164600000000003,0.12164600000000006,0.12164600000000006,3.469446951953614e-17,2.312964634635743e-17,86.71,86.71,86.71,86.71,86.71,0.0,0.0,32.23000000000001,32.229999999999976,32.23,32.230000000000004,32.23000000000001,1.507288760336424e-14,4.736951571734001e-15,3.98,0.83,2.555,2.705,0.83,1.1857170826128804,1.05
1 -> 2,0.12164600000000006,0.12164599999999998,0.12164600000000003,0.12164600000000006,0.12164600000000006,3.469446951953614e-17,2.312964634635743e-17,86.71,86.71,86.71,86.71,86.71,0.0,0.0,32.23000000000001,32.229999999999976,32.23,32.230000000000004,32.23000000000001,1.507288760336424e-14,4.736951571734001e-15,3.98,0.83,2.555,2.705,0.83,1.1857170826128804,1.05
1 -> 2,0.12164600000000006,0.12164599999999998,0.12164600000000003,0.12164600000000006,0.12164600000000006,3.469446951953614e-17,2.312964634635743e-17,86.71,86.71,86.71,86.71,86.71,0.0,0.0,32.23000000000001,32.229999999999976,32.23,32.230000000000004,32.23000000000001,1.507288760336424e-14,4.736951571734001e-15,5.17,4.43,4.805,4.8100000000000005,4.43,0.272992673894374,0.24666666666666673
1 -> 2,0.12164600000000006,0.12164599999999998,0.12164600000000003,0.12164600000000006,0.12164600000000006,3.469446951953614e-17,2.312964634635743e-17,86.71,86.71,86.71,86.71,86.71,0.0,0.0,32.23000000000001,32.229999999999976,32.23,32.230000000000004,32.23000000000001,1.507288760336424e-14,4.736951571734001e-15,5.17,4.43,4.805,4.8100000000000005,4.43,0.272992673894374,0.24666666666666673
1 -> 2,0.12164600000000006,0.12164599999999998,0.12164600000000003,0.12164600000000006,0.12164600000000006,3.469446951953614e-17,2.312964634635743e-17,86.71,86.71,86.71,86.71,86.71,0.0,0.0,32.23000000000001,32.229999999999976,32.23,32.230000000000004,32.23000000000001,1.507288760336424e-14,4.736951571734001e-15,5.54,5.06,5.3625,5.425000000000001,5.06,0.18115946014492337,-0.11666666666666685
1 -> 2,0.12164600000000006,0.12164599999999998,0.12164600000000003,0.12164600000000006,0.12164600000000006,3.469446951953614e-17,2.312964634635743e-17,86.71,86.71,86.71,86.71,86.71,0.0,0.0,32.23000000000001,32.229999999999976,32.23,32.230000000000004,32.23000000000001,1.507288760336424e-14,4.736951571734001e-15,5.54,5.06,5.3625,5.425000000000001,5.06,0.18115946014492337,-0.11666666666666685
1 -> 2,0.12164600000000006,0.12164599999999998,0.12164600000000003,0.12164600000000006,0.12164600000000006,3.469446951953614e-17,2.312964634635743e-17,86.71,86.71,86.71,86.71,86.71,0.0,0.0,32.23000000000001,32.229999999999976,32.23,32.230000000000004,32.23000000000001,1.507288760336424e-14,4.736951571734001e-15,4.47,2.74,3.5375,3.4699999999999998,2.74,0.6532371315226958,-0.5766666666666665
1 -> 2,0.12164600000000006,0.12164599999999998,0.12164600000000003,0.12164600000000006,0.12164600000000006,3.469446951953614e-17,2.312964634635743e-17,86.71,86.71,86.71,86.71,86.71,0.0,0.0,32.23000000000001,32.229999999999976,32.23,32.230000000000004,32.23000000000001,1.507288760336424e-14,4.736951571734001e-15,4.47,2.74,3.5375,3.4699999999999998,2.74,0.6532371315226958,-0.5766666666666665
1 -> 2,0.12420700000000005,0.12420699999999996,0.12420700000000003,0.12420700000000004,0.12420700000000005,4.046035655711836e-17,1.850371707708594e-17,87.38,87.38,87.38,87.38,87.38,0.0,0.0,32.250000000000014,32.24999999999998,32.25,32.25,32.250000000000014,1.507288760336424e-14,-4.736951571734001e-15,3.65,2.59,3.0100000000000002,2.9,2.59,0.4130375285612677,0.35333333333333333
1 -> 2,0.12420700000000005,0.12420699999999996,0.12420700000000003,0.12420700000000004,0.12420700000000005,4.046035655711836e-17,1.850371707708594e-17,87.38,87.38,87.38,87.38,87.38,0.0,0.0,32.250000000000014,32.24999999999998,32.25,32.25,32.250000000000014,1.507288760336424e-14,-4.736951571734001e-15,3.65,2.59,3.0100000000000002,2.9,2.59,0.4130375285612677,0.35333333333333333
1 -> 2,0.12420700000000005,0.12420699999999996,0.12420700000000003,0.12420700000000004,0.12420700000000005,4.046035655711836e-17,1.850371707708594e-17,87.38,87.38,87.38,87.38,87.38,0.0,0.0,32.250000000000014,32.24999999999998,32.25,32.25,32.250000000000014,1.507288760336424e-14,-4.736951571734001e-15,5.31,4.28,4.9275,5.0600000000000005,4.28,0.4101447915066091,0.3433333333333331
1 -> 2,0.12420700000000005,0.12420699999999996,0.12420700000000003,0.12420700000000004,0.12420700000000005,4.046035655711836e-17,1.850371707708594e-17,87.38,87.38,87.38,87.38,87.38,0.0,0.0,32.250000000000014,32.24999999999998,32.25,32.25,32.250000000000014,1.507288760336424e-14,-4.736951571734001e-15,5.31,4.28,4.9275,5.0600000000000005,4.28,0.4101447915066091,0.3433333333333331
1 -> 2,0.12420700000000005,0.12420699999999996,0.12420700000000003,0.12420700000000004,0.12420700000000005,4.046035655711836e-17,1.850371707708594e-17,87.38,87.38,87.38,87.38,87.38,0.0,0.0,32.250000000000014,32.24999999999998,32.25,32.25,32.250000000000014,1.507288760336424e-14,-4.736951571734001e-15,4.99,2.49,3.815,3.89,2.49,0.9400398927705143,-0.8333333333333334
1 -> 2,0.12420700000000005,0.12420699999999996,0.12420700000000003,0.12420700000000004,0.12420700000000005,4.046035655711836e-17,1.850371707708594e-17,87.38,87.38,87.38,87.38,87.38,0.0,0.0,32.250000000000014,32.24999999999998,32.25,32.25,32.250000000000014,1.507288760336424e-14,-4.736951571734001e-15,4.99,2.49,3.815,3.89,2.49,0.9400398927705143,-0.8333333333333334
1 -> 2,0.12420700000000005,0.12420699999999996,0.12420700000000003,0.12420700000000004,0.12420700000000005,4.046035655711836e-17,1.850371707708594e-17,87.38,87.38,87.38,87.38,87.38,0.0,0.0,32.250000000000014,32.24999999999998,32.25,32.25,32.250000000000014,1.507288760336424e-14,-4.736951571734001e-15,1.62,0.59,0.9525,0.8,0.59,0.40702426217610177,-0.32000000000000006
1 -> 2,0.12420700000000005,0.12420699999999996,0.12420700000000003,0.12420700000000004,0.12420700000000005,4.046035655711836e-17,1.850371707708594e-17,87.38,87.38,87.38,87.38,87.38,0.0,0.0,32.250000000000014,32.24999999999998,32.25,32.25,32.250000000000014,1.507288760336424e-14,-4.736951571734001e-15,1.62,0.59,0.9525,0.8,0.59,0.40702426217610177,-0.32000000000000006
1 -> 2,0.12164600000000006,0.12164599999999998,0.12164600000000003,0.12164600000000006,0.12164600000000006,3.469446951953614e-17,2.312964634635743e-17,87.38,87.38,87.38,87.38,87.38,0.0,0.0,32.250000000000014,32.24999999999998,32.25,32.25,32.250000000000014,1.507288760336424e-14,-4.736951571734001e-15,5.23,1.21,3.0925000000000002,2.965,1.21,1.511561692422774,1.34
1 -> 2,0.12164600000000006,0.12164599999999998,0.12164600000000003,0.12164600000000006,0.12164600000000006,3.469446951953614e-17,2.312964634635743e-17,87.38,87.38,87.38,87.38,87.38,0.0,0.0,32.250000000000014,32.24999999999998,32.25,32.25,32.250000000000014,1.507288760336424e-14,-4.736951571734001e-15,5.23,1.21,3.0925000000000002,2.965,1.21,1.511561692422774,1.34
1 -> 2,0.12164600000000006,0.12164599999999998,0.12164600000000003,0.12164600000000006,0.12164600000000006,3.469446951953614e-17,2.312964634635743e-17,87.38,87.38,87.38,87.38,87.38,0.0,0.0,32.250000000000014,32.24999999999998,32.25,32.25,32.250000000000014,1.507288760336424e-14,-4.736951571734001e-15,8.18,6.64,7.6525,7.895,6.64,0.615116858816274,0.48999999999999994
1 -> 2,0.12164600000000006,0.12164599999999998,0.12164600000000003,0.12164600000000006,0.12164600000000006,3.469446951953614e-17,2.312964634635743e-17,87.38,87.38,87.38,87.38,87.38,0.0,0.0,32.250000000000014,32.24999999999998,32.25,32.25,32.250000000000014,1.507288760336424e-14,-4.736951571734001e-15,8.18,6.64,7.6525,7.895,6.64,0.615116858816274,0.48999999999999994
1 -> 2,0.12164600000000006,0.12164599999999998,0.12164600000000003,0.12164600000000006,0.12164600000000006,3.469446951953614e-17,2.312964634635743e-17,87.38,87.38,87.38,87.38,87.38,0.0,0.0,32.250000000000014,32.24999999999998,32.25,32.25,32.250000000000014,1.507288760336424e-14,-4.736951571734001e-15,7.56,4.38,6.039999999999999,6.109999999999999,4.38,1.1917214439624721,-1.0599999999999998
1 -> 2,0.12164600000000006,0.12164599999999998,0.12164600000000003,0.12164600000000006,0.12164600000000006,3.469446951953614e-17,2.312964634635743e-17,87.38,87.38,87.38,87.38,87.38,0.0,0.0,32.250000000000014,32.24999999999998,32.25,32.25,32.250000000000014,1.507288760336424e-14,-4.736951571734001e-15,7.56,4.38,6.039999999999999,6.109999999999999,4.38,1.1917214439624721,-1.0599999999999998
1 -> 2,0.12164600000000006,0.12164599999999998,0.12164600000000003,0.12164600000000006,0.12164600000000006,3.469446951953614e-17,2.312964634635743e-17,87.38,87.38,87.38,87.38,87.38,0.0,0.0,32.250000000000014,32.24999999999998,32.25,32.25,32.250000000000014,1.507288760336424e-14,-4.736951571734001e-15,3.23,0.26,1.7,1.6549999999999998,0.26,1.1077680262582053,-0.9900000000000001
1 -> 2,0.12164600000000006,0.12164599999999998,0.12164600000000003,0.12164600000000006,0.12164600000000006,3.469446951953614e-17,2.312964634635743e-17,87.38,87.38,87.38,87.38,87.38,0.0,0.0,32.250000000000014,32.24999999999998,32.25,32.25,32.250000000000014,1.507288760336424e-14,-4.736951571734001e-15,3.23,0.26,1.7,1.6549999999999998,0.26,1.1077680262582053,-0.9900000000000001
1 -> 2,0.12548700000000004,0.1254869999999999,0.12548699999999996,0.12548700000000002,0.12548700000000004,6.509259464525837e-17,1.850371707708594e-17,87.38,87.38,87.38,87.38,87.38,0.0,0.0,32.250000000000014,32.24999999999998,32.25,32.25,32.250000000000014,1.507288760336424e-14,-4.736951571734001e-15,-0.55,-2.36,-1.51,-1.565,-2.36,0.6775322870535396,-0.6033333333333333
1 -> 2,0.12548700000000004,0.1254869999999999,0.12548699999999996,0.12548700000000002,0.12548700000000004,6.509259464525837e-17,1.850371707708594e-17,87.38,87.38,87.38,87.38,87.38,0.0,0.0,32.250000000000014,32.24999999999998,32.25,32.25,32.250000000000014,1.507288760336424e-14,-4.736951571734001e-15,-0.55,-2.36,-1.51,-1.565,-2.36,0.6775322870535396,-0.6033333333333333
1 -> 2,0.12548700000000004,0.1254869999999999,0.12548699999999996,0.12548700000000002,0.12548700000000004,6.509259464525837e-17,1.850371707708594e-17,87.38,87.38,87.38,87.38,87.38,0.0,0.0,32.250000000000014,32.24999999999998,32.25,32.25,32.250000000000014,1.507288760336424e-14,-4.736951571734001e-15,-2.72,-3.61,-3.145,-3.125,-3.61,0.3294313282005825,-0.2966666666666666
1 -> 2,0.12548700000000004,0.1254869999999999,0.12548699999999996,0.12548700000000002,0.12548700000000004,6.509259464525837e-17,1.850371707708594e-17,87.38,87.38,87.38,87.38,87.38,0.0,0.0,32.250000000000014,32.24999999999998,32.25,32.25,32.250000000000014,1.507288760336424e-14,-4.736951571734001e-15,-2.72,-3.61,-3.145,-3.125,-3.61,0.3294313282005825,-0.2966666666666666
1 -> 2,0.12548700000000004,0.1254869999999999,0.12548699999999996,0.12548700000000002,0.12548700000000004,6.509259464525837e-17,1.850371707708594e-17,87.38,87.38,87.38,87.38,87.38,0.0,0.0,32.250000000000014,32.24999999999998,32.25,32.25,32.250000000000014,1.507288760336424e-14,-4.736951571734001e-15,-4.14,-6.92,-5.460000000000001,-5.390000000000001,-6.92,1.0421852042703352,-0.9266666666666667
1 -> 2,0.12548700000000004,0.1254869999999999,0.12548699999999996,0.12548700000000002,0.12548700000000004,6.509259464525837e-17,1.850371707708594e-17,87.38,87.38,87.38,87.38,87.38,0.0,0.0,32.250000000000014,32.24999999999998,32.25,32.25,32.250000000000014,1.507288760336424e-14,-4.736951571734001e-15,-4.14,-6.92,-5.460000000000001,-5.390000000000001,-6.92,1.0421852042703352,-0.9266666666666667
1 -> 2,0.12548700000000004,0.1254869999999999,0.12548699999999996,0.12548700000000002,0.12548700000000004,6.509259464525837e-17,1.850371707708594e-17,87.38,87.38,87.38,87.38,87.38,0.0,0.0,32.250000000000014,32.24999999999998,32.25,32.25,32.250000000000014,1.507288760336424e-14,-4.736951571734001e-15,-7.92,-9.04,-8.6375,-8.795,-9.04,0.43522264417192247,-0.3333333333333333
1 -> 2,0.12548700000000004,0.1254869999999999,0.12548699999999996,0.12548700000000002,0.12548700000000004,6.509259464525837e-17,1.850371707708594e-17,87.38,87.38,87.38,87.38,87.38,0.0,0.0,32.250000000000014,32.24999999999998,32.25,32.25,32.250000000000014,1.507288760336424e-14,-4.736951571734001e-15,-7.92,-9.04,-8.6375,-8.795,-9.04,0.43522264417192247,-0.3333333333333333
1 -> 2,0.12164600000000006,0.12164599999999998,0.12164600000000003,0.12164600000000006,0.12164600000000006,3.469446951953614e-17,2.312964634635743e-17,87.38,87.38,87.38,87.38,87.38,0.0,0.0,32.250000000000014,32.24999999999998,32.25,32.25,32.250000000000014,1.507288760336424e-14,-4.736951571734001e-15,-4.42,-8.33,-6.5075,-6.64,-8.33,1.46731685398894,1.3033333333333335
1 -> 2,0.12164600000000006,0.12164599999999998,0.12164600000000003,0.12164600000000006,0.12164600000000006,3.469446951953614e-17,2.312964634635743e-17,87.38,87.38,87.38,87.38,87.38,0.0,0.0,32.250000000000014,32.24999999999998,32.25,32.25,32.250000000000014,1.507288760336424e-14,-4.736951571734001e-15,-4.42,-8.33,-6.5075,-6.64,-8.33,1.46731685398894,1.3033333333333335
1 -> 2,0.12164600000000006,0.12164599999999998,0.12164600000000003,0.12164600000000006,0.12164600000000006,3.469446951953614e-17,2.312964634635743e-17,87.38,87.38,87.38,87.38,87.38,0.0,0.0,32.250000000000014,32.24999999999998,32.25,32.25,32.250000000000014,1.507288760336424e-14,-4.736951571734001e-15,0.88,-2.81,-0.7950000000000002,-0.625,-2.81,1.3924528717339053,1.23
1 -> 2,0.12164600000000006,0.12164599999999998,0.12164600000000003,0.12164600000000006,0.12164600000000006,3.469446951953614e-17,2.312964634635743e-17,87.38,87.38,87.38,87.38,87.38,0.0,0.0,32.250000000000014,32.24999999999998,32.25,32.25,32.250000000000014,1.507288760336424e-14,-4.736951571734001e-15,0.88,-2.81,-0.7950000000000002,-0.625,-2.81,1.3924528717339053,1.23
1 -> 2,0.12164600000000006,0.12164599999999998,0.12164600000000003,0.12164600000000006,0.12164600000000006,3.469446951953614e-17,2.312964634635743e-17,87.38,87.38,87.38,87.38,87.38,0.0,0.0,32.250000000000014,32.24999999999998,32.25,32.25,32.250000000000014,1.507288760336424e-14,-4.736951571734001e-15,1.22,-0.26,0.6199999999999999,0.76,-0.26,0.5767148342118485,-0.49333333333333335
1 -> 2,0.12164600000000006,0.12164599999999998,0.12164600000000003,0.12164600000000006,0.12164600000000006,3.469446951953614e-17,2.312964634635743e-17,87.38,87.38,87.38,87.38,87.38,0.0,0.0,32.250000000000014,32.24999999999998,32.25,32.25,32.250000000000014,1.507288760336424e-14,-4.736951571734001e-15,1.22,-0.26,0.6199999999999999,0.76,-0.26,0.5767148342118485,-0.49333333333333335
1 -> 2,0.12164600000000006,0.12164599999999998,0.12164600000000003,0.12164600000000006,0.12164600000000006,3.469446951953614e-17,2.312964634635743e-17,87.38,87.38,87.38,87.38,87.38,0.0,0.0,32.250000000000014,32.24999999999998,32.25,32.25,32.250000000000014,1.507288760336424e-14,-4.736951571734001e-15,-0.98,-2.26,-1.68,-1.74,-2.26,0.47791212581394077,-0.4266666666666666
1 -> 2,0.12164600000000006,0.12164599999999998,0.12164600000000003,0.12164600000000006,0.12164600000000006,3.469446951953614e-17,2.312964634635743e-17,87.38,87.38,87.38,87.38,87.38,0.0,0.0,32.250000000000014,32.24999999999998,32.25,32.25,32.250000000000014,1.507288760336424e-14,-4.736951571734001e-15,-0.98,-2.26,-1.68,-1.74,-2.26,0.47791212581394077,-0.4266666666666666
1 -> 2,0.12036500000000006,0.12036499999999999,0.12036500000000003,0.12036500000000003,0.12036500000000006,2.943923360032078e-17,9.25185853854297e-18,88.22,88.22,88.22,88.22,88.22,0.0,0.0,32.210000000000015,32.20999999999997,32.21,32.21,32.210000000000015,1.879919374704706e-14,-4.736951571734001e-15,-2.6,-4.13,-3.335,-3.3049999999999997,-4.13,0.573258231515257,-0.5099999999999999
1 -> 2,0.12036500000000006,0.12036499999999999,0.12036500000000003,0.12036500000000003,0.12036500000000006,2.943923360032078e-17,9.25185853854297e-18,88.22,88.22,88.22,88.22,88.22,0.0,0.0,32.210000000000015,32.20999999999997,32.21,32.21,32.210000000000015,1.879919374704706e-14,-4.736951571734001e-15,-2.6,-4.13,-3.335,-3.3049999999999997,-4.13,0.573258231515257,-0.5099999999999999
1 -> 2,0.12036500000000006,0.12036499999999999,0.12036500000000003,0.12036500000000003,0.12036500000000006,2.943923360032078e-17,9.25185853854297e-18,88.22,88.22,88.22,88.22,88.22,0.0,0.0,32.210000000000015,32.20999999999997,32.21,32.21,32.210000000000015,1.879919374704706e-14,-4.736951571734001e-15,-4.62,-5.42,-5.0675,-5.115,-5.42,0.3001145614594533,-0.2666666666666666
1 -> 2,0.12036500000000006,0.12036499999999999,0.12036500000000003,0.12036500000000003,0.12036500000000006,2.943923360032078e-17,9.25185853854297e-18,88.22,88.22,88.22,88.22,88.22,0.0,0.0,32.210000000000015,32.20999999999997,32.21,32.21,32.210000000000015,1.879919374704706e-14,-4.736951571734001e-15,-4.62,-5.42,-5.0675,-5.115,-5.42,0.3001145614594533,-0.2666666666666666
1 -> 2,0.12036500000000006,0.12036499999999999,0.12036500000000003,0.12036500000000003,0.12036500000000006,2.943923360032078e-17,9.25185853854297e-18,88.22,88.22,88.22,88.22,88.22,0.0,0.0,32.210000000000015,32.20999999999997,32.21,32.21,32.210000000000015,1.879919374704706e-14,-4.736951571734001e-15,-5.6,-6.75,-6.1049999999999995,-6.035,-6.75,0.4328105821257148,-0.38333333333333347
1 -> 2,0.12036500000000006,0.12036499999999999,0.12036500000000003,0.12036500000000003,0.12036500000000006,2.943923360032078e-17,9.25185853854297e-18,88.22,88.22,88.22,88.22,88.22,0.0,0.0,32.210000000000015,32.20999999999997,32.21,32.21,32.210000000000015,1.879919374704706e-14,-4.736951571734001e-15,-5.6,-6.75,-6.1049999999999995,-6.035,-6.75,0.4328105821257148,-0.38333333333333347
1 -> 2,0.12036500000000006,0.12036499999999999,0.12036500000000003,0.12036500000000003,0.12036500000000006,2.943923360032078e-17,9.25185853854297e-18,88.22,88.22,88.22,88.22,88.22,0.0,0.0,32.210000000000015,32.20999999999997,32.21,32.21,32.210000000000015,1.879919374704706e-14,-4.736951571734001e-15,-7.43,-9.28,-8.445,-8.535,-9.28,0.7038643335188963,-0.6166666666666666
1 -> 2,0.12036500000000006,0.12036499999999999,0.12036500000000003,0.12036500000000003,0.12036500000000006,2.943923360032078e-17,9.25185853854297e-18,88.22,88.22,88.22,88.22,88.22,0.0,0.0,32.210000000000015,32.20999999999997,32.21,32.21,32.210000000000015,1.879919374704706e-14,-4.736951571734001e-15,-7.43,-9.28,-8.445,-8.535,-9.28,0.7038643335188963,-0.6166666666666666
1 -> 2,0.12676800000000005,0.12676799999999996,0.126768,0.12676800000000002,0.12676800000000005,4.163336342344337e-17,9.25185853854297e-18,88.22,88.22,88.22,88.22,88.22,0.0,0.0,32.210000000000015,32.20999999999997,32.21,32.21,32.210000000000015,1.879919374704706e-14,-4.736951571734001e-15,-5.99,-9.21,-7.8025,-8.005,-9.21,1.223384138363744,1.0733333333333335
1 -> 2,0.12676800000000005,0.12676799999999996,0.126768,0.12676800000000002,0.12676800000000005,4.163336342344337e-17,9.25185853854297e-18,88.22,88.22,88.22,88.22,88.22,0.0,0.0,32.210000000000015,32.20999999999997,32.21,32.21,32.210000000000015,1.879919374704706e-14,-4.736951571734001e-15,-5.99,-9.21,-7.8025,-8.005,-9.21,1.223384138363744,1.0733333333333335
1 -> 2,0.12676800000000005,0.12676799999999996,0.126768,0.12676800000000002,0.12676800000000005,4.163336342344337e-17,9.25185853854297e-18,88.22,88.22,88.22,88.22,88.22,0.0,0.0,32.210000000000015,32.20999999999997,32.21,32.21,32.210000000000015,1.879919374704706e-14,-4.736951571734001e-15,-0.43,-4.45,-2.3775,-2.315,-4.45,1.4983553483736762,1.34
1 -> 2,0.12676800000000005,0.12676799999999996,0.126768,0.12676800000000002,0.12676800000000005,4.163336342344337e-17,9.25185853854297e-18,88.22,88.22,88.22,88.22,88.22,0.0,0.0,32.210000000000015,32.20999999999997,32.21,32.21,32.210000000000015,1.879919374704706e-14,-4.736951571734001e-15,-0.43,-4.45,-2.3775,-2.315,-4.45,1.4983553483736762,1.34
1 -> 2,0.12676800000000005,0.12676799999999996,0.126768,0.12676800000000002,0.12676800000000005,4.163336342344337e-17,9.25185853854297e-18,88.22,88.22,88.22,88.22,88.22,0.0,0.0,32.210000000000015,32.20999999999997,32.21,32.21,32.210000000000015,1.879919374704706e-14,-4.736951571734001e-15,1.75,0.62,1.3325,1.48,0.62,0.4287408891160254,0.31
1 -> 2,0.12676800000000005,0.12676799999999996,0.126768,0.12676800000000002,0.12676800000000005,4.163336342344337e-17,9.25185853854297e-18,88.22,88.22,88.22,88.22,88.22,0.0,0.0,32.210000000000015,32.20999999999997,32.21,32.21,32.210000000000015,1.879919374704706e-14,-4.736951571734001e-15,1.75,0.62,1.3325,1.48,0.62,0.4287408891160254,0.31
1 -> 2,0.12676800000000005,0.12676799999999996,0.126768,0.12676800000000002,0.12676800000000005,4.163336342344337e-17,9.25185853854297e-18,88.22,88.22,88.22,88.22,88.22,0.0,0.0,32.210000000000015,32.20999999999997,32.21,32.21,32.210000000000015,1.879919374704706e-14,-4.736951571734001e-15,0.83,-1.68,-0.52,-0.615,-1.68,0.9511309058168597,-0.8366666666666666
1 -> 2,0.12676800000000005,0.12676799999999996,0.126768,0.12676800000000002,0.12676800000000005,4.163336342344337e-17,9.25185853854297e-18,88.22,88.22,88.22,88.22,88.22,0.0,0.0,32.210000000000015,32.20999999999997,32.21,32.21,32.210000000000015,1.879919374704706e-14,-4.736951571734001e-15,0.83,-1.68,-0.52,-0.615,-1.68,0.9511309058168597,-0.8366666666666666
1 -> 2,0.12164600000000006,0.12164599999999998,0.12164600000000003,0.12164600000000006,0.12164600000000006,3.469446951953614e-17,2.312964634635743e-17,88.22,88.22,88.22,88.22,88.22,0.0,0.0,32.210000000000015,32.20999999999997,32.21,32.21,32.210000000000015,1.879919374704706e-14,-4.736951571734001e-15,-1.09,-1.84,-1.4849999999999999,-1.505,-1.84,0.28761954036539306,0.25
1 -> 2,0.12164600000000006,0.12164599999999998,0.12164600000000003,0.12164600000000006,0.12164600000000006,3.469446951953614e-17,2.312964634635743e-17,88.22,88.22,88.22,88.22,88.22,0.0,0.0,32.210000000000015,32.20999999999997,32.21,32.21,32.210000000000015,1.879919374704706e-14,-4.736951571734001e-15,-1.09,-1.84,-1.4849999999999999,-1.505,-1.84,0.28761954036539306,0.25
1 -> 2,0.12164600000000006,0.12164599999999998,0.12164600000000003,0.12164600000000006,0.12164600000000006,3.469446951953614e-17,2.312964634635743e-17,88.22,88.22,88.22,88.22,88.22,0.0,0.0,32.210000000000015,32.20999999999997,32.21,32.21,32.210000000000015,1.879919374704706e-14,-4.736951571734001e-15,-0.49,-0.93,-0.7375,-0.7649999999999999,-0.93,0.16452583383772898,0.1466666666666667
1 -> 2,0.12164600000000006,0.12164599999999998,0.12164600000000003,0.12164600000000006,0.12164600000000006,3.469446951953614e-17,2.312964634635743e-17,88.22,88.22,88.22,88.22,88.22,0.0,0.0,32.210000000000015,32.20999999999997,32.21,32.21,32.210000000000015,1.879919374704706e-14,-4.736951571734001e-15,-0.49,-0.93,-0.7375,-0.7649999999999999,-0.93,0.16452583383772898,0.1466666666666667
1 -> 2,0.12164600000000006,0.12164599999999998,0.12164600000000003,0.12164600000000006,0.12164600000000006,3.469446951953614e-17,2.312964634635743e-17,88.22,88.22,88.22,88.22,88.22,0.0,0.0,32.210000000000015,32.20999999999997,32.21,32.21,32.210000000000015,1.879919374704706e-14,-4.736951571734001e-15,-0.11,-0.6,-0.2875,-0.22,-0.6,0.18713297411199342,-0.11666666666666665
1 -> 2,0.12164600000000006,0.12164599999999998,0.12164600000000003,0.12164600000000006,0.12164600000000006,3.469446951953614e-17,2.312964634635743e-17,88.22,88.22,88.22,88.22,88.22,0.0,0.0,32.210000000000015,32.20999999999997,32.21,32.21,32.210000000000015,1.879919374704706e-14,-4.736951571734001e-15,-0.11,-0.6,-0.2875,-0.22,-0.6,0.18713297411199342,-0.11666666666666665
1 -> 2,0.12164600000000006,0.12164599999999998,0.12164600000000003,0.12164600000000006,0.12164600000000006,3.469446951953614e-17,2.312964634635743e-17,88.22,88.22,88.22,88.22,88.22,0.0,0.0,32.210000000000015,32.20999999999997,32.21,32.21,32.210000000000015,1.879919374704706e-14,-4.736951571734001e-15,-1.32,-4.05,-2.71,-2.7350000000000003,-4.05,1.0246218814762837,-0.9099999999999998
1 -> 2,0.12164600000000006,0.12164599999999998,0.12164600000000003,0.12164600000000006,0.12164600000000006,3.469446951953614e-17,2.312964634635743e-17,88.22,88.22,88.22,88.22,88.22,0.0,0.0,32.210000000000015,32.20999999999997,32.21,32.21,32.210000000000015,1.879919374704706e-14,-4.736951571734001e-15,-1.32,-4.05,-2.71,-2.7350000000000003,-4.05,1.0246218814762837,-0.9099999999999998
1 -> 2,0.12548700000000004,0.1254869999999999,0.12548699999999996,0.12548700000000002,0.12548700000000004,6.509259464525837e-17,1.850371707708594e-17,88.22,88.22,88.22,88.22,88.22,0.0,0.0,32.210000000000015,32.20999999999997,32.21,32.21,32.210000000000015,1.879919374704706e-14,-4.736951571734001e-15,-2.69,-4.51,-3.88,-4.16,-4.51,0.735187051028512,0.6066666666666666
1 -> 2,0.12548700000000004,0.1254869999999999,0.12548699999999996,0.12548700000000002,0.12548700000000004,6.509259464525837e-17,1.850371707708594e-17,88.22,88.22,88.22,88.22,88.22,0.0,0.0,32.210000000000015,32.20999999999997,32.21,32.21,32.210000000000015,1.879919374704706e-14,-4.736951571734001e-15,-2.69,-4.51,-3.88,-4.16,-4.51,0.735187051028512,0.6066666666666666
1 -> 2,0.12548700000000004,0.1254869999999999,0.12548699999999996,0.12548700000000002,0.12548700000000004,6.509259464525837e-17,1.850371707708594e-17,88.22,88.22,88.22,88.22,88.22,0.0,0.0,32.210000000000015,32.20999999999997,32.21,32.21,32.210000000000015,1.879919374704706e-14,-4.736951571734001e-15,3.54,-1.15,1.275,1.355,-1.15,1.7572777242086692,1.5633333333333332
1 -> 2,0.12548700000000004,0.1254869999999999,0.12548699999999996,0.12548700000000002,0.12548700000000004,6.509259464525837e-17,1.850371707708594e-17,88.22,88.22,88.22,88.22,88.22,0.0,0.0,32.210000000000015,32.20999999999997,32.21,32.21,32.210000000000015,1.879919374704706e-14,-4.736951571734001e-15,3.54,-1.15,1.275,1.355,-1.15,1.7572777242086692,1.5633333333333332
1 -> 2,0.12548700000000004,0.1254869999999999,0.12548699999999996,0.12548700000000002,0.12548700000000004,6.509259464525837e-17,1.850371707708594e-17,88.22,88.22,88.22,88.22,88.22,0.0,0.0,32.210000000000015,32.20999999999997,32.21,32.21,32.210000000000015,1.879919374704706e-14,-4.736951571734001e-15,5.71,4.58,5.2975,5.449999999999999,4.58,0.44617121153207534,0.37666666666666665
1 -> 2,0.12548700000000004,0.1254869999999999,0.12548699999999996,0.12548700000000002,0.12548700000000004,6.509259464525837e-17,1.850371707708594e-17,88.22,88.22,88.22,88.22,88.22,0.0,0.0,32.210000000000015,32.20999999999997,32.21,32.21,32.210000000000015,1.879919374704706e-14,-4.736951571734001e-15,5.71,4.58,5.2975,5.449999999999999,4.58,0.44617121153207534,0.37666666666666665
1 -> 2,0.12548700000000004,0.1254869999999999,0.12548699999999996,0.12548700000000002,0.12548700000000004,6.509259464525837e-17,1.850371707708594e-17,88.22,88.22,88.22,88.22,88.22,0.0,0.0,32.210000000000015,32.20999999999997,32.21,32.21,32.210000000000015,1.879919374704706e-14,-4.736951571734001e-15,5.55,4.38,4.9875,5.01,4.38,0.44007811806541797,-0.38999999999999996
1 -> 2,0.12548700000000004,0.1254869999999999,0.12548699999999996,0.12548700000000002,0.12548700000000004,6.509259464525837e-17,1.850371707708594e-17,88.22,88.22,88.22,88.22,88.22,0.0,0.0,32.210000000000015,32.20999999999997,32.21,32.21,32.210000000000015,1.879919374704706e-14,-4.736951571734001e-15,5.55,4.38,4.9875,5.01,4.38,0.44007811806541797,-0.38999999999999996
1 -> 2,0.12420700000000005,0.12420699999999996,0.12420700000000003,0.12420700000000004,0.12420700000000005,4.046035655711836e-17,1.850371707708594e-17,89.0,89.0,89.0,89.0,89.0,0.0,0.0,32.23000000000001,32.229999999999976,32.23,32.230000000000004,32.23000000000001,1.507288760336424e-14,4.736951571734001e-15,4.06,3.81,3.89,3.8449999999999998,3.81,0.10222524150130419,-0.08333333333333319
1 -> 2,0.12420700000000005,0.12420699999999996,0.12420700000000003,0.12420700000000004,0.12420700000000005,4.046035655711836e-17,1.850371707708594e-17,89.0,89.0,89.0,89.0,89.0,0.0,0.0,32.23000000000001,32.229999999999976,32.23,32.230000000000004,32.23000000000001,1.507288760336424e-14,4.736951571734001e-15,4.06,3.81,3.89,3.8449999999999998,3.81,0.10222524150130419,-0.08333333333333319
1 -> 2,0.12420700000000005,0.12420699999999996,0.12420700000000003,0.12420700000000004,0.12420700000000005,4.046035655711836e-17,1.850371707708594e-17,89.0,89.0,89.0,89.0,89.0,0.0,0.0,32.23000000000001,32.229999999999976,32.23,32.230000000000004,32.23000000000001,1.507288760336424e-14,4.736951571734001e-15,3.78,3.24,3.5500000000000003,3.59,3.24,0.2051828452868318,-0.17999999999999985
1 -> 2,0.12420700000000005,0.12420699999999996,0.12420700000000003,0.12420700000000004,0.12420700000000005,4.046035655711836e-17,1.850371707708594e-17,89.0,89.0,89.0,89.0,89.0,0.0,0.0,32.23000000000001,32.229999999999976,32.23,32.230000000000004,32.23000000000001,1.507288760336424e-14,4.736951571734001e-15,3.78,3.24,3.5500000000000003,3.59,3.24,0.2051828452868318,-0.17999999999999985
1 -> 2,0.12420700000000005,0.12420699999999996,0.12420700000000003,0.12420700000000004,0.12420700000000005,4.046035655711836e-17,1.850371707708594e-17,89.0,89.0,89.0,89.0,89.0,0.0,0.0,32.23000000000001,32.229999999999976,32.23,32.230000000000004,32.23000000000001,1.507288760336424e-14,4.736951571734001e-15,2.93,2.01,2.4675000000000002,2.465,2.01,0.3432473597859131,-0.3066666666666668
1 -> 2,0.12420700000000005,0.12420699999999996,0.12420700000000003,0.12420700000000004,0.12420700000000005,4.046035655711836e-17,1.850371707708594e-17,89.0,89.0,89.0,89.0,89.0,0.0,0.0,32.23000000000001,32.229999999999976,32.23,32.230000000000004,32.23000000000001,1.507288760336424e-14,4.736951571734001e-15,2.93,2.01,2.4675000000000002,2.465,2.01,0.3432473597859131,-0.3066666666666668
1 -> 2,0.12420700000000005,0.12420699999999996,0.12420700000000003,0.12420700000000004,0.12420700000000005,4.046035655711836e-17,1.850371707708594e-17,89.0,89.0,89.0,89.0,89.0,0.0,0.0,32.23000000000001,32.229999999999976,32.23,32.230000000000004,32.23000000000001,1.507288760336424e-14,4.736951571734001e-15,1.71,0.87,1.2750000000000001,1.26,0.87,0.31340867888429635,-0.27999999999999997
1 -> 2,0.12420700000000005,0.12420699999999996,0.12420700000000003,0.12420700000000004,0.12420700000000005,4.046035655711836e-17,1.850371707708594e-17,89.0,89.0,89.0,89.0,89.0,0.0,0.0,32.23000000000001,32.229999999999976,32.23,32.230000000000004,32.23000000000001,1.507288760336424e-14,4.736951571734001e-15,1.71,0.87,1.2750000000000001,1.26,0.87,0.31340867888429635,-0.27999999999999997
1 -> 2,0.12420700000000005,0.12420699999999996,0.12420700000000003,0.12420700000000004,0.12420700000000005,4.046035655711836e-17,1.850371707708594e-17,89.0,89.0,89.0,89.0,89.0,0.0,0.0,32.23000000000001,32.229999999999976,32.23,32.230000000000004,32.23000000000001,1.507288760336424e-14,4.736951571734001e-15,1.26,0.68,0.8775,0.7849999999999999,0.68,0.23112496619794237,0.18333333333333335
1 -> 2,0.12420700000000005,0.12420699999999996,0.12420700000000003,0.12420700000000004,0.12420700000000005,4.046035655711836e-17,1.850371707708594e-17,89.0,89.0,89.0,89.0,89.0,0.0,0.0,32.23000000000001,32.229999999999976,32.23,32.230000000000004,32.23000000000001,1.507288760336424e-14,4.736951571734001e-15,1.26,0.68,0.8775,0.7849999999999999,0.68,0.23112496619794237,0.18333333333333335
1 -> 2,0.12420700000000005,0.12420699999999996,0.12420700000000003,0.12420700000000004,0.12420700000000005,4.046035655711836e-17,1.850371707708594e-17,89.0,89.0,89.0,89.0,89.0,0.0,0.0,32.23000000000001,32.229999999999976,32.23,32.230000000000004,32.23000000000001,1.507288760336424e-14,4.736951571734001e-15,4.74,1.92,3.3,3.2699999999999996,1.92,1.055935604097144,0.9400000000000001
1 -> 2,0.12420700000000005,0.12420699999999996,0.12420700000000003,0.12420700000000004,0.12420700000000005,4.046035655711836e-17,1.850371707708594e-17,89.0,89.0,89.0,89.0,89.0,0.0,0.0,32.23000000000001,32.229999999999976,32.23,32.230000000000004,32.23000000000001,1.507288760336424e-14,4.736951571734001e-15,4.74,1.92,3.3,3.2699999999999996,1.92,1.055935604097144,0.9400000000000001
1 -> 2,0.12420700000000005,0.12420699999999996,0.12420700000000003,0.12420700000000004,0.12420700000000005,4.046035655711836e-17,1.850371707708594e-17,89.0,89.0,89.0,89.0,89.0,0.0,0.0,32.23000000000001,32.229999999999976,32.23,32.230000000000004,32.23000000000001,1.507288760336424e-14,4.736951571734001e-15,7.3,5.64,6.57,6.67,5.64,0.6274153329334565,0.5533333333333333
1 -> 2,0.12420700000000005,0.12420699999999996,0.12420700000000003,0.12420700000000004,0.12420700000000005,4.046035655711836e-17,1.850371707708594e-17,89.0,89.0,89.0,89.0,89.0,0.0,0.0,32.23000000000001,32.229999999999976,32.23,32.230000000000004,32.23000000000001,1.507288760336424e-14,4.736951571734001e-15,7.3,5.64,6.57,6.67,5.64,0.6274153329334565,0.5533333333333333
1 -> 2,0.12420700000000005,0.12420699999999996,0.12420700000000003,0.12420700000000004,0.12420700000000005,4.046035655711836e-17,1.850371707708594e-17,89.0,89.0,89.0,89.0,89.0,0.0,0.0,32.23000000000001,32.229999999999976,32.23,32.230000000000004,32.23000000000001,1.507288760336424e-14,4.736951571734001e-15,7.42,6.15,6.924999999999999,7.0649999999999995,6.15,0.4942924235713106,-0.4233333333333332
1 -> 2,0.12420700000000005,0.12420699999999996,0.12420700000000003,0.12420700000000004,0.12420700000000005,4.046035655711836e-17,1.850371707708594e-17,89.0,89.0,89.0,89.0,89.0,0.0,0.0,32.23000000000001,32.229999999999976,32.23,32.230000000000004,32.23000000000001,1.507288760336424e-14,4.736951571734001e-15,7.42,6.15,6.924999999999999,7.0649999999999995,6.15,0.4942924235713106,-0.4233333333333332
1 -> 2,0.12932900000000006,0.12932899999999992,0.129329,0.12932900000000003,0.12932900000000006,5.721958498152797e-17,2.7755575615628914e-17,89.0,89.0,89.0,89.0,89.0,0.0,0.0,32.23000000000001,32.229999999999976,32.23,32.230000000000004,32.23000000000001,1.507288760336424e-14,4.736951571734001e-15,5.28,3.3,4.1825,4.075,3.3,0.7490786006821982,-0.6600000000000001
1 -> 2,0.12932900000000006,0.12932899999999992,0.129329,0.12932900000000003,0.12932900000000006,5.721958498152797e-17,2.7755575615628914e-17,89.0,89.0,89.0,89.0,89.0,0.0,0.0,32.23000000000001,32.229999999999976,32.23,32.230000000000004,32.23000000000001,1.507288760336424e-14,4.736951571734001e-15,5.28,3.3,4.1825,4.075,3.3,0.7490786006821982,-0.6600000000000001
1 -> 2,0.12932900000000006,0.12932899999999992,0.129329,0.12932900000000003,0.12932900000000006,5.721958498152797e-17,2.7755575615628914e-17,89.0,89.0,89.0,89.0,89.0,0.0,0.0,32.23000000000001,32.229999999999976,32.23,32.230000000000004,32.23000000000001,1.507288760336424e-14,4.736951571734001e-15,3.11,2.72,2.9600000000000004,3.005,2.72,0.14849242404917484,-0.1299999999999999
1 -> 2,0.12932900000000006,0.12932899999999992,0.129329,0.12932900000000003,0.12932900000000006,5.721958498152797e-17,2.7755575615628914e-17,89.0,89.0,89.0,89.0,89.0,0.0,0.0,32.23000000000001,32.229999999999976,32.23,32.230000000000004,32.23000000000001,1.507288760336424e-14,4.736951571734001e-15,3.11,2.72,2.9600000000000004,3.005,2.72,0.14849242404917484,-0.1299999999999999
1 -> 2,0.12932900000000006,0.12932899999999992,0.129329,0.12932900000000003,0.12932900000000006,5.721958498152797e-17,2.7755575615628914e-17,89.0,89.0,89.0,89.0,89.0,0.0,0.0,32.23000000000001,32.229999999999976,32.23,32.230000000000004,32.23000000000001,1.507288760336424e-14,4.736951571734001e-15,2.28,0.25,1.3099999999999998,1.355,0.25,0.7593747427983103,-0.6766666666666666
1 -> 2,0.12932900000000006,0.12932899999999992,0.129329,0.12932900000000003,0.12932900000000006,5.721958498152797e-17,2.7755575615628914e-17,89.0,89.0,89.0,89.0,89.0,0.0,0.0,32.23000000000001,32.229999999999976,32.23,32.230000000000004,32.23000000000001,1.507288760336424e-14,4.736951571734001e-15,2.28,0.25,1.3099999999999998,1.355,0.25,0.7593747427983103,-0.6766666666666666
1 -> 2,0.12932900000000006,0.12932899999999992,0.129329,0.12932900000000003,0.12932900000000006,5.721958498152797e-17,2.7755575615628914e-17,89.0,89.0,89.0,89.0,89.0,0.0,0.0,32.23000000000001,32.229999999999976,32.23,32.230000000000004,32.23000000000001,1.507288760336424e-14,4.736951571734001e-15,-0.64,-4.09,-2.325,-2.285,-4.09,1.2909008482451314,-1.15
1 -> 2,0.12932900000000006,0.12932899999999992,0.129329,0.12932900000000003,0.12932900000000006,5.721958498152797e-17,2.7755575615628914e-17,89.0,89.0,89.0,89.0,89.0,0.0,0.0,32.23000000000001,32.229999999999976,32.23,32.230000000000004,32.23000000000001,1.507288760336424e-14,4.736951571734001e-15,-0.64,-4.09,-2.325,-2.285,-4.09,1.2909008482451314,-1.15
1 -> 2,0.12420700000000005,0.12420699999999996,0.12420700000000003,0.12420700000000004,0.12420700000000005,4.046035655711836e-17,1.850371707708594e-17,89.0,89.0,89.0,89.0,89.0,0.0,0.0,32.23000000000001,32.229999999999976,32.23,32.230000000000004,32.23000000000001,1.507288760336424e-14,4.736951571734001e-15,-4.38,-5.51,-5.0575,-5.17,-5.51,0.4222780482099443,0.22666666666666657
1 -> 2,0.12420700000000005,0.12420699999999996,0.12420700000000003,0.12420700000000004,0.12420700000000005,4.046035655711836e-17,1.850371707708594e-17,89.0,89.0,89.0,89.0,89.0,0.0,0.0,32.23000000000001,32.229999999999976,32.23,32.230000000000004,32.23000000000001,1.507288760336424e-14,4.736951571734001e-15,-4.38,-5.51,-5.0575,-5.17,-5.51,0.4222780482099443,0.22666666666666657
1 -> 2,0.12420700000000005,0.12420699999999996,0.12420700000000003,0.12420700000000004,0.12420700000000005,4.046035655711836e-17,1.850371707708594e-17,89.0,89.0,89.0,89.0,89.0,0.0,0.0,32.23000000000001,32.229999999999976,32.23,32.230000000000004,32.23000000000001,1.507288760336424e-14,4.736951571734001e-15,1.06,-3.03,-0.8899999999999998,-0.795,-3.03,1.5324979608469305,1.3633333333333333
1 -> 2,0.12420700000000005,0.12420699999999996,0.12420700000000003,0.12420700000000004,0.12420700000000005,4.046035655711836e-17,1.850371707708594e-17,89.0,89.0,89.0,89.0,89.0,0.0,0.0,32.23000000000001,32.229999999999976,32.23,32.230000000000004,32.23000000000001,1.507288760336424e-14,4.736951571734001e-15,1.06,-3.03,-0.8899999999999998,-0.795,-3.03,1.5324979608469305,1.3633333333333333
