PHASE,EDA_MAX,EDA_MIN,EDA_MEAN,EDA_MEDIAN,EDA_MODE,EDA_SD,EDA_DIFF,HR_MAX,HR_MIN,HR_MEAN,HR_MEDIAN,HR_MODE,HR_SD,HR_DIFF,SKT_MAX,SKT_MIN,SKT_MEAN,SKT_MEDIAN,SKT_MODE,SKT_SD,SKT_DIFF,BVP_MAX,BVP_MIN,BVP_MEAN,BVP_MEDIAN,BVP_MODE,BVP_SD,BVP_DIFF
1 -> 2,0.7454180000000002,0.7454179999999997,0.745418,0.745418,0.7454180000000002,2.5438405243138006e-16,3.700743415417188e-17,55.0,55.0,55.0,55.0,55.0,0.0,0.0,34.930000000000014,34.92999999999997,34.93,34.93,34.930000000000014,1.879919374704706e-14,-4.736951571734001e-15,-40.96,-52.03,-47.9,-49.305,-52.03,4.354015388121636,-3.69
1 -> 2,0.7454180000000002,0.7454179999999997,0.745418,0.745418,0.7454180000000002,2.5438405243138006e-16,3.700743415417188e-17,55.0,55.0,55.0,55.0,55.0,0.0,0.0,34.930000000000014,34.92999999999997,34.93,34.93,34.930000000000014,1.879919374704706e-14,-4.736951571734001e-15,-40.96,-52.03,-47.9,-49.305,-52.03,4.354015388121636,-3.69
1 -> 2,0.7454180000000002,0.7454179999999997,0.745418,0.745418,0.7454180000000002,2.5438405243138006e-16,3.700743415417188e-17,55.0,55.0,55.0,55.0,55.0,0.0,0.0,34.930000000000014,34.92999999999997,34.93,34.93,34.930000000000014,1.879919374704706e-14,-4.736951571734001e-15,-36.71,-50.51,-44.145,-44.68,-50.51,5.193382808921367,4.599999999999999
1 -> 2,0.7454180000000002,0.7454179999999997,0.745418,0.745418,0.7454180000000002,2.5438405243138006e-16,3.700743415417188e-17,55.0,55.0,55.0,55.0,55.0,0.0,0.0,34.930000000000014,34.92999999999997,34.93,34.93,34.930000000000014,1.879919374704706e-14,-4.736951571734001e-15,-36.71,-50.51,-44.145,-44.68,-50.51,5.193382808921367,4.599999999999999
1 -> 2,0.7454180000000002,0.7454179999999997,0.745418,0.745418,0.7454180000000002,2.5438405243138006e-16,3.700743415417188e-17,55.0,55.0,55.0,55.0,55.0,0.0,0.0,34.930000000000014,34.92999999999997,34.93,34.93,34.930000000000014,1.879919374704706e-14,-4.736951571734001e-15,-14.18,-30.88,-22.46,-22.39,-30.88,6.218918716304306,5.566666666666666
1 -> 2,0.7454180000000002,0.7454179999999997,0.745418,0.745418,0.7454180000000002,2.5438405243138006e-16,3.700743415417188e-17,55.0,55.0,55.0,55.0,55.0,0.0,0.0,34.930000000000014,34.92999999999997,34.93,34.93,34.930000000000014,1.879919374704706e-14,-4.736951571734001e-15,-14.18,-30.88,-22.46,-22.39,-30.88,6.218918716304306,5.566666666666666
1 -> 2,0.7454180000000002,0.7454179999999997,0.745418,0.745418,0.7454180000000002,2.5438405243138006e-16,3.700743415417188e-17,55.0,55.0,55.0,55.0,55.0,0.0,0.0,34.930000000000014,34.92999999999997,34.93,34.93,34.930000000000014,1.879919374704706e-14,-4.736951571734001e-15,11.63,-8.51,1.3050000000000004,1.0500000000000003,-8.51,7.517547804969384,6.713333333333334
1 -> 2,0.7454180000000002,0.7454179999999997,0.745418,0.745418,0.7454180000000002,2.5438405243138006e-16,3.700743415417188e-17,55.0,55.0,55.0,55.0,55.0,0.0,0.0,34.930000000000014,34.92999999999997,34.93,34.93,34.930000000000014,1.879919374704706e-14,-4.736951571734001e-15,11.63,-8.51,1.3050000000000004,1.0500000000000003,-8.51,7.517547804969384,6.713333333333334
1 -> 2,0.7441380000000002,0.7441379999999997,0.7441380000000001,0.744138,0.7441380000000002,2.1499376424746292e-16,3.700743415417188e-17,55.0,55.0,55.0,55.0,55.0,0.0,0.0,34.930000000000014,34.92999999999997,34.93,34.93,34.930000000000014,1.879919374704706e-14,-4.736951571734001e-15,34.78,18.8,27.4175,28.045,18.8,5.997692785563462,5.326666666666667
1 -> 2,0.7441380000000002,0.7441379999999997,0.7441380000000001,0.744138,0.7441380000000002,2.1499376424746292e-16,3.700743415417188e-17,55.0,55.0,55.0,55.0,55.0,0.0,0.0,34.930000000000014,34.92999999999997,34.93,34.93,34.930000000000014,1.879919374704706e-14,-4.736951571734001e-15,34.78,18.8,27.4175,28.045,18.8,5.997692785563462,5.326666666666667
1 -> 2,0.7441380000000002,0.7441379999999997,0.7441380000000001,0.744138,0.7441380000000002,2.1499376424746292e-16,3.700743415417188e-17,55.0,55.0,55.0,55.0,55.0,0.0,0.0,34.930000000000014,34.92999999999997,34.93,34.93,34.930000000000014,1.879919374704706e-14,-4.736951571734001e-15,43.91,37.52,40.5625,40.41,37.52,2.359887444349834,2.1299999999999977
1 -> 2,0.7441380000000002,0.7441379999999997,0.7441380000000001,0.744138,0.7441380000000002,2.1499376424746292e-16,3.700743415417188e-17,55.0,55.0,55.0,55.0,55.0,0.0,0.0,34.930000000000014,34.92999999999997,34.93,34.93,34.930000000000014,1.879919374704706e-14,-4.736951571734001e-15,43.91,37.52,40.5625,40.41,37.52,2.359887444349834,2.1299999999999977
1 -> 2,0.7441380000000002,0.7441379999999997,0.7441380000000001,0.744138,0.7441380000000002,2.1499376424746292e-16,3.700743415417188e-17,55.0,55.0,55.0,55.0,55.0,0.0,0.0,34.930000000000014,34.92999999999997,34.93,34.93,34.930000000000014,1.879919374704706e-14,-4.736951571734001e-15,67.1,47.75,56.9375,56.45,47.75,7.251545955863478,6.449999999999998
1 -> 2,0.7441380000000002,0.7441379999999997,0.7441380000000001,0.744138,0.7441380000000002,2.1499376424746292e-16,3.700743415417188e-17,55.0,55.0,55.0,55.0,55.0,0.0,0.0,34.930000000000014,34.92999999999997,34.93,34.93,34.930000000000014,1.879919374704706e-14,-4.736951571734001e-15,67.1,47.75,56.9375,56.45,47.75,7.251545955863478,6.449999999999998
1 -> 2,0.7441380000000002,0.7441379999999997,0.7441380000000001,0.744138,0.7441380000000002,2.1499376424746292e-16,3.700743415417188e-17,55.0,55.0,55.0,55.0,55.0,0.0,0.0,34.930000000000014,34.92999999999997,34.93,34.93,34.930000000000014,1.879919374704706e-14,-4.736951571734001e-15,87.24,74.17,81.4975,82.28999999999999,74.17,4.93311450809729,4.356666666666665
1 -> 2,0.7441380000000002,0.7441379999999997,0.7441380000000001,0.744138,0.7441380000000002,2.1499376424746292e-16,3.700743415417188e-17,55.0,55.0,55.0,55.0,55.0,0.0,0.0,34.930000000000014,34.92999999999997,34.93,34.93,34.930000000000014,1.879919374704706e-14,-4.736951571734001e-15,87.24,74.17,81.4975,82.28999999999999,74.17,4.93311450809729,4.356666666666665
1 -> 2,0.7441380000000002,0.7441379999999997,0.7441380000000001,0.744138,0.7441380000000002,2.1499376424746292e-16,3.700743415417188e-17,55.0,55.0,55.0,55.0,55.0,0.0,0.0,34.930000000000014,34.92999999999997,34.93,34.93,34.930000000000014,1.879919374704706e-14,-4.736951571734001e-15,97.34,89.03,92.6225,92.06,89.03,3.1273740981852503,2.770000000000001
1 -> 2,0.7441380000000002,0.7441379999999997,0.7441380000000001,0.744138,0.7441380000000002,2.1499376424746292e-16,3.700743415417188e-17,55.0,55.0,55.0,55.0,55.0,0.0,0.0,34.930000000000014,34.92999999999997,34.93,34.93,34.930000000000014,1.879919374704706e-14,-4.736951571734001e-15,97.34,89.03,92.6225,92.06,89.03,3.1273740981852503,2.770000000000001
1 -> 2,0.7441380000000002,0.7441379999999997,0.7441380000000001,0.744138,0.7441380000000002,2.1499376424746292e-16,3.700743415417188e-17,55.0,55.0,55.0,55.0,55.0,0.0,0.0,34.930000000000014,34.92999999999997,34.93,34.93,34.930000000000014,1.879919374704706e-14,-4.736951571734001e-15,121.39,102.78,112.27,112.455,102.78,6.975374541915294,6.203333333333333
1 -> 2,0.7441380000000002,0.7441379999999997,0.7441380000000001,0.744138,0.7441380000000002,2.1499376424746292e-16,3.700743415417188e-17,55.0,55.0,55.0,55.0,55.0,0.0,0.0,34.930000000000014,34.92999999999997,34.93,34.93,34.930000000000014,1.879919374704706e-14,-4.736951571734001e-15,121.39,102.78,112.27,112.455,102.78,6.975374541915294,6.203333333333333
1 -> 2,0.7441380000000002,0.7441379999999997,0.7441380000000001,0.744138,0.7441380000000002,2.1499376424746292e-16,3.700743415417188e-17,55.0,55.0,55.0,55.0,55.0,0.0,0.0,34.930000000000014,34.92999999999997,34.93,34.93,34.930000000000014,1.879919374704706e-14,-4.736951571734001e-15,126.98,123.38,125.47749999999999,125.775,123.38,1.3444399391568251,-0.6500000000000009
1 -> 2,0.7441380000000002,0.7441379999999997,0.7441380000000001,0.744138,0.7441380000000002,2.1499376424746292e-16,3.700743415417188e-17,55.0,55.0,55.0,55.0,55.0,0.0,0.0,34.930000000000014,34.92999999999997,34.93,34.93,34.930000000000014,1.879919374704706e-14,-4.736951571734001e-15,126.98,123.38,125.47749999999999,125.775,123.38,1.3444399391568251,-0.6500000000000009
1 -> 2,0.7441380000000002,0.7441379999999997,0.7441380000000001,0.744138,0.7441380000000002,2.1499376424746292e-16,3.700743415417188e-17,55.0,55.0,55.0,55.0,55.0,0.0,0.0,34.930000000000014,34.92999999999997,34.93,34.93,34.930000000000014,1.879919374704706e-14,-4.736951571734001e-15,119.09,103.2,111.2775,111.41,103.2,5.923708192509148,-5.296666666666667
1 -> 2,0.7441380000000002,0.7441379999999997,0.7441380000000001,0.744138,0.7441380000000002,2.1499376424746292e-16,3.700743415417188e-17,55.0,55.0,55.0,55.0,55.0,0.0,0.0,34.930000000000014,34.92999999999997,34.93,34.93,34.930000000000014,1.879919374704706e-14,-4.736951571734001e-15,119.09,103.2,111.2775,111.41,103.2,5.923708192509148,-5.296666666666667
1 -> 2,0.7428570000000002,0.7428569999999998,0.742857,0.7428570000000001,0.7428570000000002,1.9229626863835638e-16,7.401486830834377e-17,55.0,55.0,55.0,55.0,55.0,0.0,0.0,34.930000000000014,34.92999999999997,34.93,34.93,34.930000000000014,1.879919374704706e-14,-4.736951571734001e-15,96.92,65.46,82.58,83.97,65.46,11.781638256201896,-10.48666666666667
1 -> 2,0.7428570000000002,0.7428569999999998,0.742857,0.7428570000000001,0.7428570000000002,1.9229626863835638e-16,7.401486830834377e-17,55.0,55.0,55.0,55.0,55.0,0.0,0.0,34.930000000000014,34.92999999999997,34.93,34.93,34.930000000000014,1.879919374704706e-14,-4.736951571734001e-15,96.92,65.46,82.58,83.97,65.46,11.781638256201896,-10.48666666666667
1 -> 2,0.7428570000000002,0.7428569999999998,0.742857,0.7428570000000001,0.7428570000000002,1.9229626863835638e-16,7.401486830834377e-17,55.0,55.0,55.0,55.0,55.0,0.0,0.0,34.930000000000014,34.92999999999997,34.93,34.93,34.930000000000014,1.879919374704706e-14,-4.736951571734001e-15,48.66,-18.13,16.28,17.295,-18.13,24.953113032245092,-22.263333333333332
1 -> 2,0.7428570000000002,0.7428569999999998,0.742857,0.7428570000000001,0.7428570000000002,1.9229626863835638e-16,7.401486830834377e-17,55.0,55.0,55.0,55.0,55.0,0.0,0.0,34.930000000000014,34.92999999999997,34.93,34.93,34.930000000000014,1.879919374704706e-14,-4.736951571734001e-15,48.66,-18.13,16.28,17.295,-18.13,24.953113032245092,-22.263333333333332
1 -> 2,0.7428570000000002,0.7428569999999998,0.742857,0.7428570000000001,0.7428570000000002,1.9229626863835638e-16,7.401486830834377e-17,55.0,55.0,55.0,55.0,55.0,0.0,0.0,34.930000000000014,34.92999999999997,34.93,34.93,34.930000000000014,1.879919374704706e-14,-4.736951571734001e-15,-42.31,-101.05,-73.34,-75.0,-101.05,21.989890859210735,-19.58
1 -> 2,0.7428570000000002,0.7428569999999998,0.742857,0.7428570000000001,0.7428570000000002,1.9229626863835638e-16,7.401486830834377e-17,55.0,55.0,55.0,55.0,55.0,0.0,0.0,34.930000000000014,34.92999999999997,34.93,34.93,34.930000000000014,1.879919374704706e-14,-4.736951571734001e-15,-42.31,-101.05,-73.34,-75.0,-101.05,21.989890859210735,-19.58
1 -> 2,0.7428570000000002,0.7428569999999998,0.742857,0.7428570000000001,0.7428570000000002,1.9229626863835638e-16,7.401486830834377e-17,55.0,55.0,55.0,55.0,55.0,0.0,0.0,34.930000000000014,34.92999999999997,34.93,34.93,34.930000000000014,1.879919374704706e-14,-4.736951571734001e-15,-112.93,-126.56,-121.31250000000001,-122.88,-126.56,5.290597201639903,-4.543333333333332
1 -> 2,0.7428570000000002,0.7428569999999998,0.742857,0.7428570000000001,0.7428570000000002,1.9229626863835638e-16,7.401486830834377e-17,55.0,55.0,55.0,55.0,55.0,0.0,0.0,34.930000000000014,34.92999999999997,34.93,34.93,34.930000000000014,1.879919374704706e-14,-4.736951571734001e-15,-112.93,-126.56,-121.31250000000001,-122.88,-126.56,5.290597201639903,-4.543333333333332
1 -> 2,0.7415770000000003,0.7415769999999997,0.7415769999999999,0.7415769999999999,0.7415769999999997,2.830524433501838e-16,0.0,69.0,69.0,69.0,69.0,69.0,0.0,0.0,34.930000000000014,34.92999999999997,34.93,34.93,34.930000000000014,1.879919374704706e-14,-4.736951571734001e-15,-118.52,-126.08,-122.5975,-122.89500000000001,-126.08,2.850231350259134,2.520000000000001
1 -> 2,0.7415770000000003,0.7415769999999997,0.7415769999999999,0.7415769999999999,0.7415769999999997,2.830524433501838e-16,0.0,69.0,69.0,69.0,69.0,69.0,0.0,0.0,34.930000000000014,34.92999999999997,34.93,34.93,34.930000000000014,1.879919374704706e-14,-4.736951571734001e-15,-118.52,-126.08,-122.5975,-122.89500000000001,-126.08,2.850231350259134,2.520000000000001
1 -> 2,0.7415770000000003,0.7415769999999997,0.7415769999999999,0.7415769999999999,0.7415769999999997,2.830524433501838e-16,0.0,69.0,69.0,69.0,69.0,69.0,0.0,0.0,34.930000000000014,34.92999999999997,34.93,34.93,34.930000000000014,1.879919374704706e-14,-4.736951571734001e-15,-106.73,-115.44,-111.075,-111.065,-115.44,3.240127312313512,2.903333333333331
1 -> 2,0.7415770000000003,0.7415769999999997,0.7415769999999999,0.7415769999999999,0.7415769999999997,2.830524433501838e-16,0.0,69.0,69.0,69.0,69.0,69.0,0.0,0.0,34.930000000000014,34.92999999999997,34.93,34.93,34.930000000000014,1.879919374704706e-14,-4.736951571734001e-15,-106.73,-115.44,-111.075,-111.065,-115.44,3.240127312313512,2.903333333333331
1 -> 2,0.7415770000000003,0.7415769999999997,0.7415769999999999,0.7415769999999999,0.7415769999999997,2.830524433501838e-16,0.0,69.0,69.0,69.0,69.0,69.0,0.0,0.0,34.930000000000014,34.92999999999997,34.93,34.93,34.930000000000014,1.879919374704706e-14,-4.736951571734001e-15,-91.45,-103.54,-97.68749999999999,-97.88,-103.54,4.513149537739694,4.030000000000001
1 -> 2,0.7415770000000003,0.7415769999999997,0.7415769999999999,0.7415769999999999,0.7415769999999997,2.830524433501838e-16,0.0,69.0,69.0,69.0,69.0,69.0,0.0,0.0,34.930000000000014,34.92999999999997,34.93,34.93,34.930000000000014,1.879919374704706e-14,-4.736951571734001e-15,-91.45,-103.54,-97.68749999999999,-97.88,-103.54,4.513149537739694,4.030000000000001
1 -> 2,0.7415770000000003,0.7415769999999997,0.7415769999999999,0.7415769999999999,0.7415769999999997,2.830524433501838e-16,0.0,69.0,69.0,69.0,69.0,69.0,0.0,0.0,34.930000000000014,34.92999999999997,34.93,34.93,34.930000000000014,1.879919374704706e-14,-4.736951571734001e-15,-72.34,-86.83,-79.6325,-79.68,-86.83,5.401432101767083,4.829999999999998
1 -> 2,0.7415770000000003,0.7415769999999997,0.7415769999999999,0.7415769999999999,0.7415769999999997,2.830524433501838e-16,0.0,69.0,69.0,69.0,69.0,69.0,0.0,0.0,34.930000000000014,34.92999999999997,34.93,34.93,34.930000000000014,1.879919374704706e-14,-4.736951571734001e-15,-72.34,-86.83,-79.6325,-79.68,-86.83,5.401432101767083,4.829999999999998
1 -> 2,0.7402970000000002,0.7402969999999996,0.740297,0.740297,0.7402970000000002,2.5438405243138006e-16,3.700743415417188e-17,69.0,69.0,69.0,69.0,69.0,0.0,0.0,34.930000000000014,34.92999999999997,34.93,34.93,34.930000000000014,1.879919374704706e-14,-4.736951571734001e-15,-53.66,-67.38,-60.3525,-60.185,-67.38,5.122252312215789,4.573333333333333
1 -> 2,0.7402970000000002,0.7402969999999996,0.740297,0.740297,0.7402970000000002,2.5438405243138006e-16,3.700743415417188e-17,69.0,69.0,69.0,69.0,69.0,0.0,0.0,34.930000000000014,34.92999999999997,34.93,34.93,34.930000000000014,1.879919374704706e-14,-4.736951571734001e-15,-53.66,-67.38,-60.3525,-60.185,-67.38,5.122252312215789,4.573333333333333
1 -> 2,0.7402970000000002,0.7402969999999996,0.740297,0.740297,0.7402970000000002,2.5438405243138006e-16,3.700743415417188e-17,69.0,69.0,69.0,69.0,69.0,0.0,0.0,34.930000000000014,34.92999999999997,34.93,34.93,34.930000000000014,1.879919374704706e-14,-4.736951571734001e-15,-41.9,-49.99,-45.735,-45.525,-49.99,3.0193086957116537,2.6966666666666677
1 -> 2,0.7402970000000002,0.7402969999999996,0.740297,0.740297,0.7402970000000002,2.5438405243138006e-16,3.700743415417188e-17,69.0,69.0,69.0,69.0,69.0,0.0,0.0,34.930000000000014,34.92999999999997,34.93,34.93,34.930000000000014,1.879919374704706e-14,-4.736951571734001e-15,-41.9,-49.99,-45.735,-45.525,-49.99,3.0193086957116537,2.6966666666666677
1 -> 2,0.7402970000000002,0.7402969999999996,0.740297,0.740297,0.7402970000000002,2.5438405243138006e-16,3.700743415417188e-17,69.0,69.0,69.0,69.0,69.0,0.0,0.0,34.930000000000014,34.92999999999997,34.93,34.93,34.930000000000014,1.879919374704706e-14,-4.736951571734001e-15,-36.4,-39.94,-37.9625,-37.754999999999995,-39.94,1.336607178643,1.1799999999999997
1 -> 2,0.7402970000000002,0.7402969999999996,0.740297,0.740297,0.7402970000000002,2.5438405243138006e-16,3.700743415417188e-17,69.0,69.0,69.0,69.0,69.0,0.0,0.0,34.930000000000014,34.92999999999997,34.93,34.93,34.930000000000014,1.879919374704706e-14,-4.736951571734001e-15,-36.4,-39.94,-37.9625,-37.754999999999995,-39.94,1.336607178643,1.1799999999999997
1 -> 2,0.7402970000000002,0.7402969999999996,0.740297,0.740297,0.7402970000000002,2.5438405243138006e-16,3.700743415417188e-17,69.0,69.0,69.0,69.0,69.0,0.0,0.0,34.930000000000014,34.92999999999997,34.93,34.93,34.930000000000014,1.879919374704706e-14,-4.736951571734001e-15,-34.89,-35.98,-35.4925,-35.55,-35.98,0.4057323625248535,0.3633333333333321
1 -> 2,0.7402970000000002,0.7402969999999996,0.740297,0.740297,0.7402970000000002,2.5438405243138006e-16,3.700743415417188e-17,69.0,69.0,69.0,69.0,69.0,0.0,0.0,34.930000000000014,34.92999999999997,34.93,34.93,34.930000000000014,1.879919374704706e-14,-4.736951571734001e-15,-34.89,-35.98,-35.4925,-35.55,-35.98,0.4057323625248535,0.3633333333333321
1 -> 2,0.7402970000000002,0.7402969999999996,0.740297,0.740297,0.7402970000000002,2.5438405243138006e-16,3.700743415417188e-17,69.0,69.0,69.0,69.0,69.0,0.0,0.0,34.930000000000014,34.92999999999997,34.93,34.93,34.930000000000014,1.879919374704706e-14,-4.736951571734001e-15,-33.56,-34.27,-33.892500000000005,-33.870000000000005,-34.27,0.2734387499971438,0.08333333333333333
1 -> 2,0.7402970000000002,0.7402969999999996,0.740297,0.740297,0.7402970000000002,2.5438405243138006e-16,3.700743415417188e-17,69.0,69.0,69.0,69.0,69.0,0.0,0.0,34.930000000000014,34.92999999999997,34.93,34.93,34.930000000000014,1.879919374704706e-14,-4.736951571734001e-15,-33.56,-34.27,-33.892500000000005,-33.870000000000005,-34.27,0.2734387499971438,0.08333333333333333
1 -> 2,0.7402970000000002,0.7402969999999996,0.740297,0.740297,0.7402970000000002,2.5438405243138006e-16,3.700743415417188e-17,69.0,69.0,69.0,69.0,69.0,0.0,0.0,34.930000000000014,34.92999999999997,34.93,34.93,34.930000000000014,1.879919374704706e-14,-4.736951571734001e-15,-35.08,-37.87,-36.74,-37.004999999999995,-37.87,1.096745184625855,-0.9299999999999997
1 -> 2,0.7402970000000002,0.7402969999999996,0.740297,0.740297,0.7402970000000002,2.5438405243138006e-16,3.700743415417188e-17,69.0,69.0,69.0,69.0,69.0,0.0,0.0,34.930000000000014,34.92999999999997,34.93,34.93,34.930000000000014,1.879919374704706e-14,-4.736951571734001e-15,-35.08,-37.87,-36.74,-37.004999999999995,-37.87,1.096745184625855,-0.9299999999999997
1 -> 2,0.7402970000000002,0.7402969999999996,0.740297,0.740297,0.7402970000000002,2.5438405243138006e-16,3.700743415417188e-17,69.0,69.0,69.0,69.0,69.0,0.0,0.0,34.930000000000014,34.92999999999997,34.93,34.93,34.930000000000014,1.879919374704706e-14,-4.736951571734001e-15,-24.98,-36.85,-31.5825,-32.25,-36.85,4.485322591520035,3.956666666666667
1 -> 2,0.7402970000000002,0.7402969999999996,0.740297,0.740297,0.7402970000000002,2.5438405243138006e-16,3.700743415417188e-17,69.0,69.0,69.0,69.0,69.0,0.0,0.0,34.930000000000014,34.92999999999997,34.93,34.93,34.930000000000014,1.879919374704706e-14,-4.736951571734001e-15,-24.98,-36.85,-31.5825,-32.25,-36.85,4.485322591520035,3.956666666666667
1 -> 2,0.7402970000000002,0.7402969999999996,0.740297,0.740297,0.7402970000000002,2.5438405243138006e-16,3.700743415417188e-17,69.0,69.0,69.0,69.0,69.0,0.0,0.0,34.930000000000014,34.92999999999997,34.93,34.93,34.930000000000014,1.879919374704706e-14,-4.736951571734001e-15,-1.1,-19.02,-9.9025,-9.745,-19.02,6.693401134699758,5.973333333333334
1 -> 2,0.7402970000000002,0.7402969999999996,0.740297,0.740297,0.7402970000000002,2.5438405243138006e-16,3.700743415417188e-17,69.0,69.0,69.0,69.0,69.0,0.0,0.0,34.930000000000014,34.92999999999997,34.93,34.93,34.930000000000014,1.879919374704706e-14,-4.736951571734001e-15,-1.1,-19.02,-9.9025,-9.745,-19.02,6.693401134699758,5.973333333333334
1 -> 2,0.7390160000000002,0.7390159999999996,0.739016,0.739016,0.7390160000000002,2.9373740229761033e-16,7.401486830834377e-17,69.0,69.0,69.0,69.0,69.0,0.0,0.0,34.930000000000014,34.92999999999997,34.93,34.93,34.930000000000014,1.879919374704706e-14,-4.736951571734001e-15,10.76,3.71,7.9275,8.620000000000001,3.71,2.7203710684390097,2.35
1 -> 2,0.7390160000000002,0.7390159999999996,0.739016,0.739016,0.7390160000000002,2.9373740229761033e-16,7.401486830834377e-17,69.0,69.0,69.0,69.0,69.0,0.0,0.0,34.930000000000014,34.92999999999997,34.93,34.93,34.930000000000014,1.879919374704706e-14,-4.736951571734001e-15,10.76,3.71,7.9275,8.620000000000001,3.71,2.7203710684390097,2.35
1 -> 2,0.7390160000000002,0.7390159999999996,0.739016,0.739016,0.7390160000000002,2.9373740229761033e-16,7.401486830834377e-17,69.0,69.0,69.0,69.0,69.0,0.0,0.0,34.930000000000014,34.92999999999997,34.93,34.93,34.930000000000014,1.879919374704706e-14,-4.736951571734001e-15,10.4,5.41,8.035,8.165,5.41,1.8812030725044016,-1.6633333333333333
1 -> 2,0.7390160000000002,0.7390159999999996,0.739016,0.739016,0.7390160000000002,2.9373740229761033e-16,7.401486830834377e-17,69.0,69.0,69.0,69.0,69.0,0.0,0.0,34.930000000000014,34.92999999999997,34.93,34.93,34.930000000000014,1.879919374704706e-14,-4.736951571734001e-15,10.4,5.41,8.035,8.165,5.41,1.8812030725044016,-1.6633333333333333
1 -> 2,0.7390160000000002,0.7390159999999996,0.739016,0.739016,0.7390160000000002,2.9373740229761033e-16,7.401486830834377e-17,69.0,69.0,69.0,69.0,69.0,0.0,0.0,34.930000000000014,34.92999999999997,34.93,34.93,34.930000000000014,1.879919374704706e-14,-4.736951571734001e-15,3.81,0.84,2.2175000000000002,2.11,0.84,1.1066249364622145,-0.9899999999999999
1 -> 2,0.7390160000000002,0.7390159999999996,0.739016,0.739016,0.7390160000000002,2.9373740229761033e-16,7.401486830834377e-17,69.0,69.0,69.0,69.0,69.0,0.0,0.0,34.930000000000014,34.92999999999997,34.93,34.93,34.930000000000014,1.879919374704706e-14,-4.736951571734001e-15,3.81,0.84,2.2175000000000002,2.11,0.84,1.1066249364622145,-0.9899999999999999
1 -> 2,0.7390160000000002,0.7390159999999996,0.739016,0.739016,0.7390160000000002,2.9373740229761033e-16,7.401486830834377e-17,69.0,69.0,69.0,69.0,69.0,0.0,0.0,34.930000000000014,34.92999999999997,34.93,34.93,34.930000000000014,1.879919374704706e-14,-4.736951571734001e-15,0.1,-1.81,-0.9,-0.9450000000000001,-1.81,0.7147377141301556,-0.6366666666666667
1 -> 2,0.7390160000000002,0.7390159999999996,0.739016,0.739016,0.7390160000000002,2.9373740229761033e-16,7.401486830834377e-17,69.0,69.0,69.0,69.0,69.0,0.0,0.0,34.930000000000014,34.92999999999997,34.93,34.93,34.930000000000014,1.879919374704706e-14,-4.736951571734001e-15,0.1,-1.81,-0.9,-0.9450000000000001,-1.81,0.7147377141301556,-0.6366666666666667
1 -> 2,0.7377360000000002,0.7377359999999996,0.737736,0.7377360000000001,0.7377360000000002,2.2887833992611187e-16,1.1102230246251565e-16,62.33,62.33,62.33,62.33,62.33,0.0,0.0,34.930000000000014,34.92999999999997,34.93,34.93,34.930000000000014,1.879919374704706e-14,-4.736951571734001e-15,-2.2,-3.04,-2.615,-2.6100000000000003,-3.04,0.3089093718228697,-0.27999999999999997
1 -> 2,0.7377360000000002,0.7377359999999996,0.737736,0.7377360000000001,0.7377360000000002,2.2887833992611187e-16,1.1102230246251565e-16,62.33,62.33,62.33,62.33,62.33,0.0,0.0,34.930000000000014,34.92999999999997,34.93,34.93,34.930000000000014,1.879919374704706e-14,-4.736951571734001e-15,-2.2,-3.04,-2.615,-2.6100000000000003,-3.04,0.3089093718228697,-0.27999999999999997
1 -> 2,0.7377360000000002,0.7377359999999996,0.737736,0.7377360000000001,0.7377360000000002,2.2887833992611187e-16,1.1102230246251565e-16,62.33,62.33,62.33,62.33,62.33,0.0,0.0,34.930000000000014,34.92999999999997,34.93,34.93,34.930000000000014,1.879919374704706e-14,-4.736951571734001e-15,-3.56,-7.32,-5.25,-5.0600000000000005,-7.32,1.414832145521157,-1.2533333333333334
1 -> 2,0.7377360000000002,0.7377359999999996,0.737736,0.7377360000000001,0.7377360000000002,2.2887833992611187e-16,1.1102230246251565e-16,62.33,62.33,62.33,62.33,62.33,0.0,0.0,34.930000000000014,34.92999999999997,34.93,34.93,34.930000000000014,1.879919374704706e-14,-4.736951571734001e-15,-3.56,-7.32,-5.25,-5.0600000000000005,-7.32,1.414832145521157,-1.2533333333333334
1 -> 2,0.7377360000000002,0.7377359999999996,0.737736,0.7377360000000001,0.7377360000000002,2.2887833992611187e-16,1.1102230246251565e-16,62.33,62.33,62.33,62.33,62.33,0.0,0.0,34.930000000000014,34.92999999999997,34.93,34.93,34.930000000000014,1.879919374704706e-14,-4.736951571734001e-15,-9.19,-14.49,-11.92,-12.0,-14.49,1.9805681003186941,-1.7666666666666668
1 -> 2,0.7377360000000002,0.7377359999999996,0.737736,0.7377360000000001,0.7377360000000002,2.2887833992611187e-16,1.1102230246251565e-16,62.33,62.33,62.33,62.33,62.33,0.0,0.0,34.930000000000014,34.92999999999997,34.93,34.93,34.930000000000014,1.879919374704706e-14,-4.736951571734001e-15,-9.19,-14.49,-11.92,-12.0,-14.49,1.9805681003186941,-1.7666666666666668
1 -> 2,0.7377360000000002,0.7377359999999996,0.737736,0.7377360000000001,0.7377360000000002,2.2887833992611187e-16,1.1102230246251565e-16,62.33,62.33,62.33,62.33,62.33,0.0,0.0,34.930000000000014,34.92999999999997,34.93,34.93,34.930000000000014,1.879919374704706e-14,-4.736951571734001e-15,-15.89,-20.11,-17.925,-17.85,-20.11,1.5693549630341757,-1.4066666666666663
1 -> 2,0.7377360000000002,0.7377359999999996,0.737736,0.7377360000000001,0.7377360000000002,2.2887833992611187e-16,1.1102230246251565e-16,62.33,62.33,62.33,62.33,62.33,0.0,0.0,34.930000000000014,34.92999999999997,34.93,34.93,34.930000000000014,1.879919374704706e-14,-4.736951571734001e-15,-15.89,-20.11,-17.925,-17.85,-20.11,1.5693549630341757,-1.4066666666666663
1 -> 2,0.7351750000000002,0.7351749999999996,0.7351749999999999,0.7351749999999999,0.7351750000000002,3.090730095650652e-16,-3.700743415417188e-17,62.33,62.33,62.33,62.33,62.33,0.0,0.0,34.930000000000014,34.92999999999997,34.93,34.93,34.930000000000014,1.879919374704706e-14,-4.736951571734001e-15,-22.02,-27.79,-25.052500000000002,-25.2,-27.79,2.173515297852766,-1.9233333333333331
1 -> 2,0.7351750000000002,0.7351749999999996,0.7351749999999999,0.7351749999999999,0.7351750000000002,3.090730095650652e-16,-3.700743415417188e-17,62.33,62.33,62.33,62.33,62.33,0.0,0.0,34.930000000000014,34.92999999999997,34.93,34.93,34.930000000000014,1.879919374704706e-14,-4.736951571734001e-15,-22.02,-27.79,-25.052500000000002,-25.2,-27.79,2.173515297852766,-1.9233333333333331
1 -> 2,0.7351750000000002,0.7351749999999996,0.7351749999999999,0.7351749999999999,0.7351750000000002,3.090730095650652e-16,-3.700743415417188e-17,62.33,62.33,62.33,62.33,62.33,0.0,0.0,34.930000000000014,34.92999999999997,34.93,34.93,34.930000000000014,1.879919374704706e-14,-4.736951571734001e-15,-20.33,-28.29,-25.135,-25.96,-28.29,3.0819839389588006,2.6533333333333338
1 -> 2,0.7351750000000002,0.7351749999999996,0.7351749999999999,0.7351749999999999,0.7351750000000002,3.090730095650652e-16,-3.700743415417188e-17,62.33,62.33,62.33,62.33,62.33,0.0,0.0,34.930000000000014,34.92999999999997,34.93,34.93,34.930000000000014,1.879919374704706e-14,-4.736951571734001e-15,-20.33,-28.29,-25.135,-25.96,-28.29,3.0819839389588006,2.6533333333333338
1 -> 2,0.7351750000000002,0.7351749999999996,0.7351749999999999,0.7351749999999999,0.7351750000000002,3.090730095650652e-16,-3.700743415417188e-17,62.33,62.33,62.33,62.33,62.33,0.0,0.0,34.930000000000014,34.92999999999997,34.93,34.93,34.930000000000014,1.879919374704706e-14,-4.736951571734001e-15,3.55,-14.82,-5.554999999999999,-5.475,-14.82,6.865422419633041,6.123333333333334
1 -> 2,0.7351750000000002,0.7351749999999996,0.7351749999999999,0.7351749999999999,0.7351750000000002,3.090730095650652e-16,-3.700743415417188e-17,62.33,62.33,62.33,62.33,62.33,0.0,0.0,34.930000000000014,34.92999999999997,34.93,34.93,34.930000000000014,1.879919374704706e-14,-4.736951571734001e-15,3.55,-14.82,-5.554999999999999,-5.475,-14.82,6.865422419633041,6.123333333333334
1 -> 2,0.7351750000000002,0.7351749999999996,0.7351749999999999,0.7351749999999999,0.7351750000000002,3.090730095650652e-16,-3.700743415417188e-17,62.33,62.33,62.33,62.33,62.33,0.0,0.0,34.930000000000014,34.92999999999997,34.93,34.93,34.930000000000014,1.879919374704706e-14,-4.736951571734001e-15,16.7,8.6,13.29,13.93,8.6,3.087984779755237,2.6999999999999997
1 -> 2,0.7351750000000002,0.7351749999999996,0.7351749999999999,0.7351749999999999,0.7351750000000002,3.090730095650652e-16,-3.700743415417188e-17,62.33,62.33,62.33,62.33,62.33,0.0,0.0,34.930000000000014,34.92999999999997,34.93,34.93,34.930000000000014,1.879919374704706e-14,-4.736951571734001e-15,16.7,8.6,13.29,13.93,8.6,3.087984779755237,2.6999999999999997
1 -> 2,0.7351750000000002,0.7351749999999996,0.7351749999999999,0.7351749999999999,0.7351750000000002,3.090730095650652e-16,-3.700743415417188e-17,62.33,62.33,62.33,62.33,62.33,0.0,0.0,34.930000000000014,34.92999999999997,34.93,34.93,34.930000000000014,1.879919374704706e-14,-4.736951571734001e-15,16.86,12.09,14.780000000000001,15.085,12.09,1.8173194545813895,-1.5899999999999999
1 -> 2,0.7351750000000002,0.7351749999999996,0.7351749999999999,0.7351749999999999,0.7351750000000002,3.090730095650652e-16,-3.700743415417188e-17,62.33,62.33,62.33,62.33,62.33,0.0,0.0,34.930000000000014,34.92999999999997,34.93,34.93,34.930000000000014,1.879919374704706e-14,-4.736951571734001e-15,16.86,12.09,14.780000000000001,15.085,12.09,1.8173194545813895,-1.5899999999999999
1 -> 2,0.7351750000000002,0.7351749999999996,0.7351749999999999,0.7351749999999999,0.7351750000000002,3.090730095650652e-16,-3.700743415417188e-17,62.33,62.33,62.33,62.33,62.33,0.0,0.0,34.930000000000014,34.92999999999997,34.93,34.93,34.930000000000014,1.879919374704706e-14,-4.736951571734001e-15,9.91,5.52,7.4975000000000005,7.279999999999999,5.52,1.6500814373842283,-1.4633333333333336
1 -> 2,0.7351750000000002,0.7351749999999996,0.7351749999999999,0.7351749999999999,0.7351750000000002,3.090730095650652e-16,-3.700743415417188e-17,62.33,62.33,62.33,62.33,62.33,0.0,0.0,34.930000000000014,34.92999999999997,34.93,34.93,34.930000000000014,1.879919374704706e-14,-4.736951571734001e-15,9.91,5.52,7.4975000000000005,7.279999999999999,5.52,1.6500814373842283,-1.4633333333333336
1 -> 2,0.7351750000000002,0.7351749999999996,0.7351749999999999,0.7351749999999999,0.7351750000000002,3.090730095650652e-16,-3.700743415417188e-17,62.33,62.33,62.33,62.33,62.33,0.0,0.0,34.930000000000014,34.92999999999997,34.93,34.93,34.930000000000014,1.879919374704706e-14,-4.736951571734001e-15,4.76,2.46,3.6624999999999996,3.715,2.46,0.8569240047985585,-0.7666666666666666
1 -> 2,0.7351750000000002,0.7351749999999996,0.7351749999999999,0.7351749999999999,0.7351750000000002,3.090730095650652e-16,-3.700743415417188e-17,62.33,62.33,62.33,62.33,62.33,0.0,0.0,34.930000000000014,34.92999999999997,34.93,34.93,34.930000000000014,1.879919374704706e-14,-4.736951571734001e-15,4.76,2.46,3.6624999999999996,3.715,2.46,0.8569240047985585,-0.7666666666666666
1 -> 2,0.7351750000000002,0.7351749999999996,0.7351749999999999,0.7351749999999999,0.7351750000000002,3.090730095650652e-16,-3.700743415417188e-17,62.33,62.33,62.33,62.33,62.33,0.0,0.0,34.930000000000014,34.92999999999997,34.93,34.93,34.930000000000014,1.879919374704706e-14,-4.736951571734001e-15,1.52,-0.94,0.25,0.21,-0.94,0.9154507086675939,-0.82
1 -> 2,0.7351750000000002,0.7351749999999996,0.7351749999999999,0.7351749999999999,0.7351750000000002,3.090730095650652e-16,-3.700743415417188e-17,62.33,62.33,62.33,62.33,62.33,0.0,0.0,34.930000000000014,34.92999999999997,34.93,34.93,34.930000000000014,1.879919374704706e-14,-4.736951571734001e-15,1.52,-0.94,0.25,0.21,-0.94,0.9154507086675939,-0.82
1 -> 2,0.7351750000000002,0.7351749999999996,0.7351749999999999,0.7351749999999999,0.7351750000000002,3.090730095650652e-16,-3.700743415417188e-17,62.33,62.33,62.33,62.33,62.33,0.0,0.0,34.930000000000014,34.92999999999997,34.93,34.93,34.930000000000014,1.879919374704706e-14,-4.736951571734001e-15,-1.77,-5.81,-3.6425,-3.495,-5.81,1.5131981859624335,-1.3466666666666665
1 -> 2,0.7351750000000002,0.7351749999999996,0.7351749999999999,0.7351749999999999,0.7351750000000002,3.090730095650652e-16,-3.700743415417188e-17,62.33,62.33,62.33,62.33,62.33,0.0,0.0,34.930000000000014,34.92999999999997,34.93,34.93,34.930000000000014,1.879919374704706e-14,-4.736951571734001e-15,-1.77,-5.81,-3.6425,-3.495,-5.81,1.5131981859624335,-1.3466666666666665
1 -> 2,0.7351750000000002,0.7351749999999996,0.7351749999999999,0.7351749999999999,0.7351750000000002,3.090730095650652e-16,-3.700743415417188e-17,62.33,62.33,62.33,62.33,62.33,0.0,0.0,34.930000000000014,34.92999999999997,34.93,34.93,34.930000000000014,1.879919374704706e-14,-4.736951571734001e-15,-7.62,-13.32,-10.445,-10.42,-13.32,2.1221863725884207,-1.9000000000000001
1 -> 2,0.7351750000000002,0.7351749999999996,0.7351749999999999,0.7351749999999999,0.7351750000000002,3.090730095650652e-16,-3.700743415417188e-17,62.33,62.33,62.33,62.33,62.33,0.0,0.0,34.930000000000014,34.92999999999997,34.93,34.93,34.930000000000014,1.879919374704706e-14,-4.736951571734001e-15,-7.62,-13.32,-10.445,-10.42,-13.32,2.1221863725884207,-1.9000000000000001
1 -> 2,0.7351750000000002,0.7351749999999996,0.7351749999999999,0.7351749999999999,0.7351750000000002,3.090730095650652e-16,-3.700743415417188e-17,62.33,62.33,62.33,62.33,62.33,0.0,0.0,34.930000000000014,34.92999999999997,34.93,34.93,34.930000000000014,1.879919374704706e-14,-4.736951571734001e-15,-15.53,-24.13,-19.6925,-19.555,-24.13,3.2151234424202126,-2.8666666666666667
1 -> 2,0.7351750000000002,0.7351749999999996,0.7351749999999999,0.7351749999999999,0.7351750000000002,3.090730095650652e-16,-3.700743415417188e-17,62.33,62.33,62.33,62.33,62.33,0.0,0.0,34.930000000000014,34.92999999999997,34.93,34.93,34.930000000000014,1.879919374704706e-14,-4.736951571734001e-15,-15.53,-24.13,-19.6925,-19.555,-24.13,3.2151234424202126,-2.8666666666666667
1 -> 2,0.7351750000000002,0.7351749999999996,0.7351749999999999,0.7351749999999999,0.7351750000000002,3.090730095650652e-16,-3.700743415417188e-17,62.33,62.33,62.33,62.33,62.33,0.0,0.0,34.930000000000014,34.92999999999997,34.93,34.93,34.930000000000014,1.879919374704706e-14,-4.736951571734001e-15,-27.06,-30.51,-29.255000000000003,-29.725,-30.51,1.332413224191355,-1.0100000000000005
1 -> 2,0.7351750000000002,0.7351749999999996,0.7351749999999999,0.7351749999999999,0.7351750000000002,3.090730095650652e-16,-3.700743415417188e-17,62.33,62.33,62.33,62.33,62.33,0.0,0.0,34.930000000000014,34.92999999999997,34.93,34.93,34.930000000000014,1.879919374704706e-14,-4.736951571734001e-15,-27.06,-30.51,-29.255000000000003,-29.725,-30.51,1.332413224191355,-1.0100000000000005
1 -> 2,0.7326150000000002,0.7326149999999999,0.7326150000000001,0.7326150000000001,0.7326150000000002,1.4686870114880517e-16,-3.700743415417188e-17,61.25,61.25,61.25,61.25,61.25,0.0,0.0,34.930000000000014,34.92999999999997,34.93,34.93,34.930000000000014,1.879919374704706e-14,-4.736951571734001e-15,-11.29,-27.85,-20.240000000000002,-20.91,-27.85,6.228109665058894,5.5200000000000005
1 -> 2,0.7326150000000002,0.7326149999999999,0.7326150000000001,0.7326150000000001,0.7326150000000002,1.4686870114880517e-16,-3.700743415417188e-17,61.25,61.25,61.25,61.25,61.25,0.0,0.0,34.930000000000014,34.92999999999997,34.93,34.93,34.930000000000014,1.879919374704706e-14,-4.736951571734001e-15,-11.29,-27.85,-20.240000000000002,-20.91,-27.85,6.228109665058894,5.5200000000000005
1 -> 2,0.7326150000000002,0.7326149999999999,0.7326150000000001,0.7326150000000001,0.7326150000000002,1.4686870114880517e-16,-3.700743415417188e-17,61.25,61.25,61.25,61.25,61.25,0.0,0.0,34.930000000000014,34.92999999999997,34.93,34.93,34.930000000000014,1.879919374704706e-14,-4.736951571734001e-15,13.3,-4.15,5.105,5.635,-4.15,6.537532026690195,5.816666666666667
1 -> 2,0.7326150000000002,0.7326149999999999,0.7326150000000001,0.7326150000000001,0.7326150000000002,1.4686870114880517e-16,-3.700743415417188e-17,61.25,61.25,61.25,61.25,61.25,0.0,0.0,34.930000000000014,34.92999999999997,34.93,34.93,34.930000000000014,1.879919374704706e-14,-4.736951571734001e-15,13.3,-4.15,5.105,5.635,-4.15,6.537532026690195,5.816666666666667
1 -> 2,0.7326150000000002,0.7326149999999999,0.7326150000000001,0.7326150000000001,0.7326150000000002,1.4686870114880517e-16,-3.700743415417188e-17,61.25,61.25,61.25,61.25,61.25,0.0,0.0,34.930000000000014,34.92999999999997,34.93,34.93,34.930000000000014,1.879919374704706e-14,-4.736951571734001e-15,20.42,16.69,19.0225,19.49,16.69,1.4600406672418407,1.2433333333333334
1 -> 2,0.7326150000000002,0.7326149999999999,0.7326150000000001,0.7326150000000001,0.7326150000000002,1.4686870114880517e-16,-3.700743415417188e-17,61.25,61.25,61.25,61.25,61.25,0.0,0.0,34.930000000000014,34.92999999999997,34.93,34.93,34.930000000000014,1.879919374704706e-14,-4.736951571734001e-15,20.42,16.69,19.0225,19.49,16.69,1.4600406672418407,1.2433333333333334
1 -> 2,0.7326150000000002,0.7326149999999999,0.7326150000000001,0.7326150000000001,0.7326150000000002,1.4686870114880517e-16,-3.700743415417188e-17,61.25,61.25,61.25,61.25,61.25,0.0,0.0,34.930000000000014,34.92999999999997,34.93,34.93,34.930000000000014,1.879919374704706e-14,-4.736951571734001e-15,20.07,16.45,18.392500000000002,18.525,16.45,1.3627981325200005,-1.206666666666667
1 -> 2,0.7326150000000002,0.7326149999999999,0.7326150000000001,0.7326150000000001,0.7326150000000002,1.4686870114880517e-16,-3.700743415417188e-17,61.25,61.25,61.25,61.25,61.25,0.0,0.0,34.930000000000014,34.92999999999997,34.93,34.93,34.930000000000014,1.879919374704706e-14,-4.736951571734001e-15,20.07,16.45,18.392500000000002,18.525,16.45,1.3627981325200005,-1.206666666666667
1 -> 2,0.7326150000000002,0.7326149999999999,0.7326150000000001,0.7326150000000001,0.7326150000000002,1.4686870114880517e-16,-3.700743415417188e-17,61.25,61.25,61.25,61.25,61.25,0.0,0.0,34.930000000000014,34.92999999999997,34.93,34.93,34.930000000000014,1.879919374704706e-14,-4.736951571734001e-15,15.03,11.33,13.1525,13.125,11.33,1.376596800083452,-1.2333333333333332
1 -> 2,0.7326150000000002,0.7326149999999999,0.7326150000000001,0.7326150000000001,0.7326150000000002,1.4686870114880517e-16,-3.700743415417188e-17,61.25,61.25,61.25,61.25,61.25,0.0,0.0,34.930000000000014,34.92999999999997,34.93,34.93,34.930000000000014,1.879919374704706e-14,-4.736951571734001e-15,15.03,11.33,13.1525,13.125,11.33,1.376596800083452,-1.2333333333333332
1 -> 2,0.7326150000000002,0.7326149999999999,0.7326150000000001,0.7326150000000001,0.7326150000000002,1.4686870114880517e-16,-3.700743415417188e-17,61.25,61.25,61.25,61.25,61.25,0.0,0.0,34.930000000000014,34.92999999999997,34.93,34.93,34.930000000000014,1.879919374704706e-14,-4.736951571734001e-15,10.03,5.88,7.93,7.904999999999999,5.88,1.5521114650694385,-1.383333333333333
1 -> 2,0.7326150000000002,0.7326149999999999,0.7326150000000001,0.7326150000000001,0.7326150000000002,1.4686870114880517e-16,-3.700743415417188e-17,61.25,61.25,61.25,61.25,61.25,0.0,0.0,34.930000000000014,34.92999999999997,34.93,34.93,34.930000000000014,1.879919374704706e-14,-4.736951571734001e-15,10.03,5.88,7.93,7.904999999999999,5.88,1.5521114650694385,-1.383333333333333
1 -> 2,0.7326150000000002,0.7326149999999999,0.7326150000000001,0.7326150000000001,0.7326150000000002,1.4686870114880517e-16,-3.700743415417188e-17,61.25,61.25,61.25,61.25,61.25,0.0,0.0,34.930000000000014,34.92999999999997,34.93,34.93,34.930000000000014,1.879919374704706e-14,-4.736951571734001e-15,4.79,1.57,3.2649999999999997,3.3499999999999996,1.57,1.193031852047547,-1.0733333333333333
1 -> 2,0.7326150000000002,0.7326149999999999,0.7326150000000001,0.7326150000000001,0.7326150000000002,1.4686870114880517e-16,-3.700743415417188e-17,61.25,61.25,61.25,61.25,61.25,0.0,0.0,34.930000000000014,34.92999999999997,34.93,34.93,34.930000000000014,1.879919374704706e-14,-4.736951571734001e-15,4.79,1.57,3.2649999999999997,3.3499999999999996,1.57,1.193031852047547,-1.0733333333333333
1 -> 2,0.7326150000000002,0.7326149999999999,0.7326150000000001,0.7326150000000001,0.7326150000000002,1.4686870114880517e-16,-3.700743415417188e-17,61.25,61.25,61.25,61.25,61.25,0.0,0.0,34.930000000000014,34.92999999999997,34.93,34.93,34.930000000000014,1.879919374704706e-14,-4.736951571734001e-15,-0.21,-7.93,-3.9574999999999996,-3.8449999999999998,-7.93,2.8902540978260025,-2.5733333333333333
1 -> 2,0.7326150000000002,0.7326149999999999,0.7326150000000001,0.7326150000000001,0.7326150000000002,1.4686870114880517e-16,-3.700743415417188e-17,61.25,61.25,61.25,61.25,61.25,0.0,0.0,34.930000000000014,34.92999999999997,34.93,34.93,34.930000000000014,1.879919374704706e-14,-4.736951571734001e-15,-0.21,-7.93,-3.9574999999999996,-3.8449999999999998,-7.93,2.8902540978260025,-2.5733333333333333
1 -> 2,0.7326150000000002,0.7326149999999999,0.7326150000000001,0.7326150000000001,0.7326150000000002,1.4686870114880517e-16,-3.700743415417188e-17,61.25,61.25,61.25,61.25,61.25,0.0,0.0,34.930000000000014,34.92999999999997,34.93,34.93,34.930000000000014,1.879919374704706e-14,-4.736951571734001e-15,-10.51,-16.77,-13.7,-13.76,-16.77,2.3242310556396926,-2.0866666666666664
1 -> 2,0.7326150000000002,0.7326149999999999,0.7326150000000001,0.7326150000000001,0.7326150000000002,1.4686870114880517e-16,-3.700743415417188e-17,61.25,61.25,61.25,61.25,61.25,0.0,0.0,34.930000000000014,34.92999999999997,34.93,34.93,34.930000000000014,1.879919374704706e-14,-4.736951571734001e-15,-10.51,-16.77,-13.7,-13.76,-16.77,2.3242310556396926,-2.0866666666666664
1 -> 2,0.7326150000000002,0.7326149999999999,0.7326150000000001,0.7326150000000001,0.7326150000000002,1.4686870114880517e-16,-3.700743415417188e-17,61.25,61.25,61.25,61.25,61.25,0.0,0.0,34.930000000000014,34.92999999999997,34.93,34.93,34.930000000000014,1.879919374704706e-14,-4.736951571734001e-15,-19.16,-29.98,-24.315,-24.060000000000002,-29.98,4.053254864920291,-3.606666666666667
1 -> 2,0.7326150000000002,0.7326149999999999,0.7326150000000001,0.7326150000000001,0.7326150000000002,1.4686870114880517e-16,-3.700743415417188e-17,61.25,61.25,61.25,61.25,61.25,0.0,0.0,34.930000000000014,34.92999999999997,34.93,34.93,34.930000000000014,1.879919374704706e-14,-4.736951571734001e-15,-19.16,-29.98,-24.315,-24.060000000000002,-29.98,4.053254864920291,-3.606666666666667
1 -> 2,0.7326150000000002,0.7326149999999999,0.7326150000000001,0.7326150000000001,0.7326150000000002,1.4686870114880517e-16,-3.700743415417188e-17,61.25,61.25,61.25,61.25,61.25,0.0,0.0,34.930000000000014,34.92999999999997,34.93,34.93,34.930000000000014,1.879919374704706e-14,-4.736951571734001e-15,-33.64,-36.29,-34.9975,-35.03,-36.29,1.161601803545431,-0.14000000000000057
1 -> 2,0.7326150000000002,0.7326149999999999,0.7326150000000001,0.7326150000000001,0.7326150000000002,1.4686870114880517e-16,-3.700743415417188e-17,61.25,61.25,61.25,61.25,61.25,0.0,0.0,34.930000000000014,34.92999999999997,34.93,34.93,34.930000000000014,1.879919374704706e-14,-4.736951571734001e-15,-33.64,-36.29,-34.9975,-35.03,-36.29,1.161601803545431,-0.14000000000000057
1 -> 2,0.7326150000000002,0.7326149999999999,0.7326150000000001,0.7326150000000001,0.7326150000000002,1.4686870114880517e-16,-3.700743415417188e-17,61.25,61.25,61.25,61.25,61.25,0.0,0.0,34.930000000000014,34.92999999999997,34.93,34.93,34.930000000000014,1.879919374704706e-14,-4.736951571734001e-15,-7.42,-29.41,-18.7475,-19.08,-29.41,8.232591861011937,7.330000000000001
1 -> 2,0.7326150000000002,0.7326149999999999,0.7326150000000001,0.7326150000000001,0.7326150000000002,1.4686870114880517e-16,-3.700743415417188e-17,61.25,61.25,61.25,61.25,61.25,0.0,0.0,34.930000000000014,34.92999999999997,34.93,34.93,34.930000000000014,1.879919374704706e-14,-4.736951571734001e-15,-7.42,-29.41,-18.7475,-19.08,-29.41,8.232591861011937,7.330000000000001
1 -> 2,0.7313340000000003,0.7313340000000002,0.7313340000000002,0.7313340000000002,0.7313340000000002,7.850462293418876e-17,0.0,61.25,61.25,61.25,61.25,61.25,0.0,0.0,34.930000000000014,34.92999999999997,34.93,34.93,34.930000000000014,1.879919374704706e-14,-4.736951571734001e-15,16.41,0.05,8.8325,9.434999999999999,0.05,6.13304318833644,5.453333333333333
1 -> 2,0.7313340000000003,0.7313340000000002,0.7313340000000002,0.7313340000000002,0.7313340000000002,7.850462293418876e-17,0.0,61.25,61.25,61.25,61.25,61.25,0.0,0.0,34.930000000000014,34.92999999999997,34.93,34.93,34.930000000000014,1.879919374704706e-14,-4.736951571734001e-15,16.41,0.05,8.8325,9.434999999999999,0.05,6.13304318833644,5.453333333333333
1 -> 2,0.7313340000000003,0.7313340000000002,0.7313340000000002,0.7313340000000002,0.7313340000000002,7.850462293418876e-17,0.0,61.25,61.25,61.25,61.25,61.25,0.0,0.0,34.930000000000014,34.92999999999997,34.93,34.93,34.930000000000014,1.879919374704706e-14,-4.736951571734001e-15,21.08,19.26,20.405,20.64,19.26,0.6902716856426886,0.4199999999999993
1 -> 2,0.7313340000000003,0.7313340000000002,0.7313340000000002,0.7313340000000002,0.7313340000000002,7.850462293418876e-17,0.0,61.25,61.25,61.25,61.25,61.25,0.0,0.0,34.930000000000014,34.92999999999997,34.93,34.93,34.930000000000014,1.879919374704706e-14,-4.736951571734001e-15,21.08,19.26,20.405,20.64,19.26,0.6902716856426886,0.4199999999999993
1 -> 2,0.7313340000000003,0.7313340000000002,0.7313340000000002,0.7313340000000002,0.7313340000000002,7.850462293418876e-17,0.0,61.25,61.25,61.25,61.25,61.25,0.0,0.0,34.930000000000014,34.92999999999997,34.93,34.93,34.930000000000014,1.879919374704706e-14,-4.736951571734001e-15,19.48,17.04,18.11,17.96,17.04,0.9269034469673746,-0.8133333333333338
1 -> 2,0.7313340000000003,0.7313340000000002,0.7313340000000002,0.7313340000000002,0.7313340000000002,7.850462293418876e-17,0.0,61.25,61.25,61.25,61.25,61.25,0.0,0.0,34.930000000000014,34.92999999999997,34.93,34.93,34.930000000000014,1.879919374704706e-14,-4.736951571734001e-15,19.48,17.04,18.11,17.96,17.04,0.9269034469673746,-0.8133333333333338
1 -> 2,0.7313340000000003,0.7313340000000002,0.7313340000000002,0.7313340000000002,0.7313340000000002,7.850462293418876e-17,0.0,61.25,61.25,61.25,61.25,61.25,0.0,0.0,34.930000000000014,34.92999999999997,34.93,34.93,34.930000000000014,1.879919374704706e-14,-4.736951571734001e-15,17.56,16.9,17.16,17.09,16.9,0.2557342370508882,0.22000000000000006
1 -> 2,0.7313340000000003,0.7313340000000002,0.7313340000000002,0.7313340000000002,0.7313340000000002,7.850462293418876e-17,0.0,61.25,61.25,61.25,61.25,61.25,0.0,0.0,34.930000000000014,34.92999999999997,34.93,34.93,34.930000000000014,1.879919374704706e-14,-4.736951571734001e-15,17.56,16.9,17.16,17.09,16.9,0.2557342370508882,0.22000000000000006
1 -> 2,0.7326150000000002,0.7326149999999999,0.7326150000000001,0.7326150000000001,0.7326150000000002,1.4686870114880517e-16,-3.700743415417188e-17,60.6,60.6,60.6,60.6,60.6,0.0,0.0,34.890000000000015,34.88999999999999,34.89,34.89000000000001,34.890000000000015,1.0658141036401503e-14,2.3684757858670005e-15,19.55,18.09,18.945,19.07,18.09,0.5745650528878343,0.48666666666666697
1 -> 2,0.7326150000000002,0.7326149999999999,0.7326150000000001,0.7326150000000001,0.7326150000000002,1.4686870114880517e-16,-3.700743415417188e-17,60.6,60.6,60.6,60.6,60.6,0.0,0.0,34.890000000000015,34.88999999999999,34.89,34.89000000000001,34.890000000000015,1.0658141036401503e-14,2.3684757858670005e-15,19.55,18.09,18.945,19.07,18.09,0.5745650528878343,0.48666666666666697
1 -> 2,0.7326150000000002,0.7326149999999999,0.7326150000000001,0.7326150000000001,0.7326150000000002,1.4686870114880517e-16,-3.700743415417188e-17,60.6,60.6,60.6,60.6,60.6,0.0,0.0,34.890000000000015,34.88999999999999,34.89,34.89000000000001,34.890000000000015,1.0658141036401503e-14,2.3684757858670005e-15,18.82,9.89,14.8475,15.34,9.89,3.378153156681917,-2.9766666666666666
1 -> 2,0.7326150000000002,0.7326149999999999,0.7326150000000001,0.7326150000000001,0.7326150000000002,1.4686870114880517e-16,-3.700743415417188e-17,60.6,60.6,60.6,60.6,60.6,0.0,0.0,34.890000000000015,34.88999999999999,34.89,34.89000000000001,34.890000000000015,1.0658141036401503e-14,2.3684757858670005e-15,18.82,9.89,14.8475,15.34,9.89,3.378153156681917,-2.9766666666666666
1 -> 2,0.7326150000000002,0.7326149999999999,0.7326150000000001,0.7326150000000001,0.7326150000000002,1.4686870114880517e-16,-3.700743415417188e-17,60.6,60.6,60.6,60.6,60.6,0.0,0.0,34.890000000000015,34.88999999999999,34.89,34.89000000000001,34.890000000000015,1.0658141036401503e-14,2.3684757858670005e-15,5.7,-5.42,2.220446049250313e-16,-0.14,-5.42,4.141358472771948,-3.706666666666667
1 -> 2,0.7326150000000002,0.7326149999999999,0.7326150000000001,0.7326150000000001,0.7326150000000002,1.4686870114880517e-16,-3.700743415417188e-17,60.6,60.6,60.6,60.6,60.6,0.0,0.0,34.890000000000015,34.88999999999999,34.89,34.89000000000001,34.890000000000015,1.0658141036401503e-14,2.3684757858670005e-15,5.7,-5.42,2.220446049250313e-16,-0.14,-5.42,4.141358472771948,-3.706666666666667
1 -> 2,0.7326150000000002,0.7326149999999999,0.7326150000000001,0.7326150000000001,0.7326150000000002,1.4686870114880517e-16,-3.700743415417188e-17,60.6,60.6,60.6,60.6,60.6,0.0,0.0,34.890000000000015,34.88999999999999,34.89,34.89000000000001,34.890000000000015,1.0658141036401503e-14,2.3684757858670005e-15,-8.91,-21.28,-14.92,-14.745,-21.28,4.614092543501918,-4.123333333333334
1 -> 2,0.7326150000000002,0.7326149999999999,0.7326150000000001,0.7326150000000001,0.7326150000000002,1.4686870114880517e-16,-3.700743415417188e-17,60.6,60.6,60.6,60.6,60.6,0.0,0.0,34.890000000000015,34.88999999999999,34.89,34.89000000000001,34.890000000000015,1.0658141036401503e-14,2.3684757858670005e-15,-8.91,-21.28,-14.92,-14.745,-21.28,4.614092543501918,-4.123333333333334
1 -> 2,0.7287740000000003,0.7287739999999998,0.7287740000000001,0.728774,0.7287740000000003,2.1499376424746292e-16,3.700743415417188e-17,60.6,60.6,60.6,60.6,60.6,0.0,0.0,34.890000000000015,34.88999999999999,34.89,34.89000000000001,34.890000000000015,1.0658141036401503e-14,2.3684757858670005e-15,-25.98,-39.3,-32.849999999999994,-33.06,-39.3,4.986672237073536,-4.439999999999999
1 -> 2,0.7287740000000003,0.7287739999999998,0.7287740000000001,0.728774,0.7287740000000003,2.1499376424746292e-16,3.700743415417188e-17,60.6,60.6,60.6,60.6,60.6,0.0,0.0,34.890000000000015,34.88999999999999,34.89,34.89000000000001,34.890000000000015,1.0658141036401503e-14,2.3684757858670005e-15,-25.98,-39.3,-32.849999999999994,-33.06,-39.3,4.986672237073536,-4.439999999999999
1 -> 2,0.7287740000000003,0.7287739999999998,0.7287740000000001,0.728774,0.7287740000000003,2.1499376424746292e-16,3.700743415417188e-17,60.6,60.6,60.6,60.6,60.6,0.0,0.0,34.890000000000015,34.88999999999999,34.89,34.89000000000001,34.890000000000015,1.0658141036401503e-14,2.3684757858670005e-15,-35.37,-42.35,-39.95,-41.04,-42.35,2.760905648514633,2.1666666666666665
1 -> 2,0.7287740000000003,0.7287739999999998,0.7287740000000001,0.728774,0.7287740000000003,2.1499376424746292e-16,3.700743415417188e-17,60.6,60.6,60.6,60.6,60.6,0.0,0.0,34.890000000000015,34.88999999999999,34.89,34.89000000000001,34.890000000000015,1.0658141036401503e-14,2.3684757858670005e-15,-35.37,-42.35,-39.95,-41.04,-42.35,2.760905648514633,2.1666666666666665
1 -> 2,0.7287740000000003,0.7287739999999998,0.7287740000000001,0.728774,0.7287740000000003,2.1499376424746292e-16,3.700743415417188e-17,60.6,60.6,60.6,60.6,60.6,0.0,0.0,34.890000000000015,34.88999999999999,34.89,34.89000000000001,34.890000000000015,1.0658141036401503e-14,2.3684757858670005e-15,-1.58,-28.24,-14.9775,-15.045,-28.24,9.9679545920916,8.886666666666665
1 -> 2,0.7287740000000003,0.7287739999999998,0.7287740000000001,0.728774,0.7287740000000003,2.1499376424746292e-16,3.700743415417188e-17,60.6,60.6,60.6,60.6,60.6,0.0,0.0,34.890000000000015,34.88999999999999,34.89,34.89000000000001,34.890000000000015,1.0658141036401503e-14,2.3684757858670005e-15,-1.58,-28.24,-14.9775,-15.045,-28.24,9.9679545920916,8.886666666666665
1 -> 2,0.7287740000000003,0.7287739999999998,0.7287740000000001,0.728774,0.7287740000000003,2.1499376424746292e-16,3.700743415417188e-17,60.6,60.6,60.6,60.6,60.6,0.0,0.0,34.890000000000015,34.88999999999999,34.89,34.89000000000001,34.890000000000015,1.0658141036401503e-14,2.3684757858670005e-15,23.04,6.44,15.38,16.02,6.44,6.2179900289402195,5.533333333333332
1 -> 2,0.7287740000000003,0.7287739999999998,0.7287740000000001,0.728774,0.7287740000000003,2.1499376424746292e-16,3.700743415417188e-17,60.6,60.6,60.6,60.6,60.6,0.0,0.0,34.890000000000015,34.88999999999999,34.89,34.89000000000001,34.890000000000015,1.0658141036401503e-14,2.3684757858670005e-15,23.04,6.44,15.38,16.02,6.44,6.2179900289402195,5.533333333333332
1 -> 2,0.7300540000000002,0.7300539999999998,0.730054,0.730054,0.7300540000000002,2.0014830212433605e-16,3.700743415417188e-17,60.6,60.6,60.6,60.6,60.6,0.0,0.0,34.890000000000015,34.88999999999999,34.89,34.89000000000001,34.890000000000015,1.0658141036401503e-14,2.3684757858670005e-15,30.83,26.19,28.842499999999998,29.175,26.19,1.75692024577099,1.5466666666666657
1 -> 2,0.7300540000000002,0.7300539999999998,0.730054,0.730054,0.7300540000000002,2.0014830212433605e-16,3.700743415417188e-17,60.6,60.6,60.6,60.6,60.6,0.0,0.0,34.890000000000015,34.88999999999999,34.89,34.89000000000001,34.890000000000015,1.0658141036401503e-14,2.3684757858670005e-15,30.83,26.19,28.842499999999998,29.175,26.19,1.75692024577099,1.5466666666666657
1 -> 2,0.7300540000000002,0.7300539999999998,0.730054,0.730054,0.7300540000000002,2.0014830212433605e-16,3.700743415417188e-17,60.6,60.6,60.6,60.6,60.6,0.0,0.0,34.890000000000015,34.88999999999999,34.89,34.89000000000001,34.890000000000015,1.0658141036401503e-14,2.3684757858670005e-15,31.17,28.79,30.25,30.52,28.79,0.9300537618869145,-0.7933333333333342
1 -> 2,0.7300540000000002,0.7300539999999998,0.730054,0.730054,0.7300540000000002,2.0014830212433605e-16,3.700743415417188e-17,60.6,60.6,60.6,60.6,60.6,0.0,0.0,34.890000000000015,34.88999999999999,34.89,34.89000000000001,34.890000000000015,1.0658141036401503e-14,2.3684757858670005e-15,31.17,28.79,30.25,30.52,28.79,0.9300537618869145,-0.7933333333333342
1 -> 2,0.7300540000000002,0.7300539999999998,0.730054,0.730054,0.7300540000000002,2.0014830212433605e-16,3.700743415417188e-17,60.6,60.6,60.6,60.6,60.6,0.0,0.0,34.890000000000015,34.88999999999999,34.89,34.89000000000001,34.890000000000015,1.0658141036401503e-14,2.3684757858670005e-15,27.15,22.55,24.757499999999997,24.665,22.55,1.7209499556930752,-1.5333333333333325
1 -> 2,0.7300540000000002,0.7300539999999998,0.730054,0.730054,0.7300540000000002,2.0014830212433605e-16,3.700743415417188e-17,60.6,60.6,60.6,60.6,60.6,0.0,0.0,34.890000000000015,34.88999999999999,34.89,34.89000000000001,34.890000000000015,1.0658141036401503e-14,2.3684757858670005e-15,27.15,22.55,24.757499999999997,24.665,22.55,1.7209499556930752,-1.5333333333333325
1 -> 2,0.7300540000000002,0.7300539999999998,0.730054,0.730054,0.7300540000000002,2.0014830212433605e-16,3.700743415417188e-17,60.6,60.6,60.6,60.6,60.6,0.0,0.0,34.890000000000015,34.88999999999999,34.89,34.89000000000001,34.890000000000015,1.0658141036401503e-14,2.3684757858670005e-15,21.42,17.27,19.5025,19.66,17.27,1.5477140401249845,-1.383333333333334
1 -> 2,0.7300540000000002,0.7300539999999998,0.730054,0.730054,0.7300540000000002,2.0014830212433605e-16,3.700743415417188e-17,60.6,60.6,60.6,60.6,60.6,0.0,0.0,34.890000000000015,34.88999999999999,34.89,34.89000000000001,34.890000000000015,1.0658141036401503e-14,2.3684757858670005e-15,21.42,17.27,19.5025,19.66,17.27,1.5477140401249845,-1.383333333333334
1 -> 2,0.7287740000000003,0.7287739999999998,0.7287740000000001,0.728774,0.7287740000000003,2.1499376424746292e-16,3.700743415417188e-17,60.6,60.6,60.6,60.6,60.6,0.0,0.0,34.890000000000015,34.88999999999999,34.89,34.89000000000001,34.890000000000015,1.0658141036401503e-14,2.3684757858670005e-15,15.09,8.02,11.467500000000001,11.379999999999999,8.02,2.648059430979599,-2.356666666666667
1 -> 2,0.7287740000000003,0.7287739999999998,0.7287740000000001,0.728774,0.7287740000000003,2.1499376424746292e-16,3.700743415417188e-17,60.6,60.6,60.6,60.6,60.6,0.0,0.0,34.890000000000015,34.88999999999999,34.89,34.89000000000001,34.890000000000015,1.0658141036401503e-14,2.3684757858670005e-15,15.09,8.02,11.467500000000001,11.379999999999999,8.02,2.648059430979599,-2.356666666666667
1 -> 2,0.7287740000000003,0.7287739999999998,0.7287740000000001,0.728774,0.7287740000000003,2.1499376424746292e-16,3.700743415417188e-17,60.6,60.6,60.6,60.6,60.6,0.0,0.0,34.890000000000015,34.88999999999999,34.89,34.89000000000001,34.890000000000015,1.0658141036401503e-14,2.3684757858670005e-15,6.45,4.62,5.39,5.245,4.62,0.6871317195414574,-0.61
1 -> 2,0.7287740000000003,0.7287739999999998,0.7287740000000001,0.728774,0.7287740000000003,2.1499376424746292e-16,3.700743415417188e-17,60.6,60.6,60.6,60.6,60.6,0.0,0.0,34.890000000000015,34.88999999999999,34.89,34.89000000000001,34.890000000000015,1.0658141036401503e-14,2.3684757858670005e-15,6.45,4.62,5.39,5.245,4.62,0.6871317195414574,-0.61
1 -> 2,0.7287740000000003,0.7287739999999998,0.7287740000000001,0.728774,0.7287740000000003,2.1499376424746292e-16,3.700743415417188e-17,60.6,60.6,60.6,60.6,60.6,0.0,0.0,34.890000000000015,34.88999999999999,34.89,34.89000000000001,34.890000000000015,1.0658141036401503e-14,2.3684757858670005e-15,4.01,-2.1,1.3775,1.8,-2.1,2.314102147702214,-2.0366666666666666
1 -> 2,0.7287740000000003,0.7287739999999998,0.7287740000000001,0.728774,0.7287740000000003,2.1499376424746292e-16,3.700743415417188e-17,60.6,60.6,60.6,60.6,60.6,0.0,0.0,34.890000000000015,34.88999999999999,34.89,34.89000000000001,34.890000000000015,1.0658141036401503e-14,2.3684757858670005e-15,4.01,-2.1,1.3775,1.8,-2.1,2.314102147702214,-2.0366666666666666
1 -> 2,0.7287740000000003,0.7287739999999998,0.7287740000000001,0.728774,0.7287740000000003,2.1499376424746292e-16,3.700743415417188e-17,60.6,60.6,60.6,60.6,60.6,0.0,0.0,34.890000000000015,34.88999999999999,34.89,34.89000000000001,34.890000000000015,1.0658141036401503e-14,2.3684757858670005e-15,-5.57,-12.1,-9.545,-10.254999999999999,-12.1,2.5708413019865692,-2.1766666666666663
1 -> 2,0.7287740000000003,0.7287739999999998,0.7287740000000001,0.728774,0.7287740000000003,2.1499376424746292e-16,3.700743415417188e-17,60.6,60.6,60.6,60.6,60.6,0.0,0.0,34.890000000000015,34.88999999999999,34.89,34.89000000000001,34.890000000000015,1.0658141036401503e-14,2.3684757858670005e-15,-5.57,-12.1,-9.545,-10.254999999999999,-12.1,2.5708413019865692,-2.1766666666666663
1 -> 2,0.7249330000000003,0.7249329999999995,0.7249329999999999,0.7249329999999999,0.7249330000000003,3.640109616122045e-16,-3.700743415417188e-17,71.0,71.0,71.0,71.0,71.0,0.0,0.0,34.930000000000014,34.92999999999997,34.93,34.93,34.930000000000014,1.879919374704706e-14,-4.736951571734001e-15,10.86,-10.07,-0.5924999999999998,-1.5799999999999998,-10.07,7.896712528008095,6.976666666666667
1 -> 2,0.7249330000000003,0.7249329999999995,0.7249329999999999,0.7249329999999999,0.7249330000000003,3.640109616122045e-16,-3.700743415417188e-17,71.0,71.0,71.0,71.0,71.0,0.0,0.0,34.930000000000014,34.92999999999997,34.93,34.93,34.930000000000014,1.879919374704706e-14,-4.736951571734001e-15,10.86,-10.07,-0.5924999999999998,-1.5799999999999998,-10.07,7.896712528008095,6.976666666666667
1 -> 2,0.7249330000000003,0.7249329999999995,0.7249329999999999,0.7249329999999999,0.7249330000000003,3.640109616122045e-16,-3.700743415417188e-17,71.0,71.0,71.0,71.0,71.0,0.0,0.0,34.930000000000014,34.92999999999997,34.93,34.93,34.930000000000014,1.879919374704706e-14,-4.736951571734001e-15,39.36,20.0,30.650000000000002,31.619999999999997,20.0,7.298640284326937,6.453333333333333
1 -> 2,0.7249330000000003,0.7249329999999995,0.7249329999999999,0.7249329999999999,0.7249330000000003,3.640109616122045e-16,-3.700743415417188e-17,71.0,71.0,71.0,71.0,71.0,0.0,0.0,34.930000000000014,34.92999999999997,34.93,34.93,34.930000000000014,1.879919374704706e-14,-4.736951571734001e-15,39.36,20.0,30.650000000000002,31.619999999999997,20.0,7.298640284326937,6.453333333333333
1 -> 2,0.7249330000000003,0.7249329999999995,0.7249329999999999,0.7249329999999999,0.7249330000000003,3.640109616122045e-16,-3.700743415417188e-17,71.0,71.0,71.0,71.0,71.0,0.0,0.0,34.930000000000014,34.92999999999997,34.93,34.93,34.930000000000014,1.879919374704706e-14,-4.736951571734001e-15,41.53,37.29,40.065000000000005,40.72,37.29,1.7241447155038938,-1.400000000000001
1 -> 2,0.7249330000000003,0.7249329999999995,0.7249329999999999,0.7249329999999999,0.7249330000000003,3.640109616122045e-16,-3.700743415417188e-17,71.0,71.0,71.0,71.0,71.0,0.0,0.0,34.930000000000014,34.92999999999997,34.93,34.93,34.930000000000014,1.879919374704706e-14,-4.736951571734001e-15,41.53,37.29,40.065000000000005,40.72,37.29,1.7241447155038938,-1.400000000000001
1 -> 2,0.7249330000000003,0.7249329999999995,0.7249329999999999,0.7249329999999999,0.7249330000000003,3.640109616122045e-16,-3.700743415417188e-17,71.0,71.0,71.0,71.0,71.0,0.0,0.0,34.930000000000014,34.92999999999997,34.93,34.93,34.930000000000014,1.879919374704706e-14,-4.736951571734001e-15,34.09,24.06,29.055000000000003,29.035,24.06,3.738759821117159,-3.343333333333335
1 -> 2,0.7249330000000003,0.7249329999999995,0.7249329999999999,0.7249329999999999,0.7249330000000003,3.640109616122045e-16,-3.700743415417188e-17,71.0,71.0,71.0,71.0,71.0,0.0,0.0,34.930000000000014,34.92999999999997,34.93,34.93,34.930000000000014,1.879919374704706e-14,-4.736951571734001e-15,34.09,24.06,29.055000000000003,29.035,24.06,3.738759821117159,-3.343333333333335
1 -> 2,0.7236520000000002,0.7236519999999997,0.7236520000000001,0.7236520000000001,0.7236520000000002,1.9229626863835638e-16,7.401486830834377e-17,71.0,71.0,71.0,71.0,71.0,0.0,0.0,34.930000000000014,34.92999999999997,34.93,34.93,34.930000000000014,1.879919374704706e-14,-4.736951571734001e-15,20.79,11.81,16.175,16.05,11.81,3.3542324010121893,-2.9933333333333327
1 -> 2,0.7236520000000002,0.7236519999999997,0.7236520000000001,0.7236520000000001,0.7236520000000002,1.9229626863835638e-16,7.401486830834377e-17,71.0,71.0,71.0,71.0,71.0,0.0,0.0,34.930000000000014,34.92999999999997,34.93,34.93,34.930000000000014,1.879919374704706e-14,-4.736951571734001e-15,20.79,11.81,16.175,16.05,11.81,3.3542324010121893,-2.9933333333333327
1 -> 2,0.7236520000000002,0.7236519999999997,0.7236520000000001,0.7236520000000001,0.7236520000000002,1.9229626863835638e-16,7.401486830834377e-17,71.0,71.0,71.0,71.0,71.0,0.0,0.0,34.930000000000014,34.92999999999997,34.93,34.93,34.930000000000014,1.879919374704706e-14,-4.736951571734001e-15,9.54,4.93,7.1075,6.98,4.93,1.7165572376125415,-1.5366666666666664
1 -> 2,0.7236520000000002,0.7236519999999997,0.7236520000000001,0.7236520000000001,0.7236520000000002,1.9229626863835638e-16,7.401486830834377e-17,71.0,71.0,71.0,71.0,71.0,0.0,0.0,34.930000000000014,34.92999999999997,34.93,34.93,34.930000000000014,1.879919374704706e-14,-4.736951571734001e-15,9.54,4.93,7.1075,6.98,4.93,1.7165572376125415,-1.5366666666666664
1 -> 2,0.7236520000000002,0.7236519999999997,0.7236520000000001,0.7236520000000001,0.7236520000000002,1.9229626863835638e-16,7.401486830834377e-17,71.0,71.0,71.0,71.0,71.0,0.0,0.0,34.930000000000014,34.92999999999997,34.93,34.93,34.930000000000014,1.879919374704706e-14,-4.736951571734001e-15,3.67,-0.2,1.7425000000000002,1.75,-0.2,1.441169230173889,-1.2899999999999998
1 -> 2,0.7236520000000002,0.7236519999999997,0.7236520000000001,0.7236520000000001,0.7236520000000002,1.9229626863835638e-16,7.401486830834377e-17,71.0,71.0,71.0,71.0,71.0,0.0,0.0,34.930000000000014,34.92999999999997,34.93,34.93,34.930000000000014,1.879919374704706e-14,-4.736951571734001e-15,3.67,-0.2,1.7425000000000002,1.75,-0.2,1.441169230173889,-1.2899999999999998
1 -> 2,0.7236520000000002,0.7236519999999997,0.7236520000000001,0.7236520000000001,0.7236520000000002,1.9229626863835638e-16,7.401486830834377e-17,71.0,71.0,71.0,71.0,71.0,0.0,0.0,34.930000000000014,34.92999999999997,34.93,34.93,34.930000000000014,1.879919374704706e-14,-4.736951571734001e-15,-1.61,-8.37,-4.699999999999999,-4.41,-8.37,2.530079050148433,-2.253333333333333
1 -> 2,0.7236520000000002,0.7236519999999997,0.7236520000000001,0.7236520000000001,0.7236520000000002,1.9229626863835638e-16,7.401486830834377e-17,71.0,71.0,71.0,71.0,71.0,0.0,0.0,34.930000000000014,34.92999999999997,34.93,34.93,34.930000000000014,1.879919374704706e-14,-4.736951571734001e-15,-1.61,-8.37,-4.699999999999999,-4.41,-8.37,2.530079050148433,-2.253333333333333
1 -> 2,0.7223720000000002,0.7223719999999998,0.722372,0.7223720000000002,0.7223720000000002,2.0014830212433605e-16,1.1102230246251565e-16,71.0,71.0,71.0,71.0,71.0,0.0,0.0,34.930000000000014,34.92999999999997,34.93,34.93,34.930000000000014,1.879919374704706e-14,-4.736951571734001e-15,-11.91,-24.26,-18.095000000000002,-18.105,-24.26,4.620013528118722,-4.116666666666667
1 -> 2,0.7223720000000002,0.7223719999999998,0.722372,0.7223720000000002,0.7223720000000002,2.0014830212433605e-16,1.1102230246251565e-16,71.0,71.0,71.0,71.0,71.0,0.0,0.0,34.930000000000014,34.92999999999997,34.93,34.93,34.930000000000014,1.879919374704706e-14,-4.736951571734001e-15,-11.91,-24.26,-18.095000000000002,-18.105,-24.26,4.620013528118722,-4.116666666666667
1 -> 2,0.7223720000000002,0.7223719999999998,0.722372,0.7223720000000002,0.7223720000000002,2.0014830212433605e-16,1.1102230246251565e-16,71.0,71.0,71.0,71.0,71.0,0.0,0.0,34.930000000000014,34.92999999999997,34.93,34.93,34.930000000000014,1.879919374704706e-14,-4.736951571734001e-15,-27.56,-30.08,-28.97,-29.12,-30.08,0.9754486147409304,-0.34666666666666757
1 -> 2,0.7223720000000002,0.7223719999999998,0.722372,0.7223720000000002,0.7223720000000002,2.0014830212433605e-16,1.1102230246251565e-16,71.0,71.0,71.0,71.0,71.0,0.0,0.0,34.930000000000014,34.92999999999997,34.93,34.93,34.930000000000014,1.879919374704706e-14,-4.736951571734001e-15,-27.56,-30.08,-28.97,-29.12,-30.08,0.9754486147409304,-0.34666666666666757
1 -> 2,0.7223720000000002,0.7223719999999998,0.722372,0.7223720000000002,0.7223720000000002,2.0014830212433605e-16,1.1102230246251565e-16,71.0,71.0,71.0,71.0,71.0,0.0,0.0,34.930000000000014,34.92999999999997,34.93,34.93,34.930000000000014,1.879919374704706e-14,-4.736951571734001e-15,-6.99,-25.16,-16.46,-16.845,-25.16,6.81362238460571,6.0566666666666675
1 -> 2,0.7223720000000002,0.7223719999999998,0.722372,0.7223720000000002,0.7223720000000002,2.0014830212433605e-16,1.1102230246251565e-16,71.0,71.0,71.0,71.0,71.0,0.0,0.0,34.930000000000014,34.92999999999997,34.93,34.93,34.930000000000014,1.879919374704706e-14,-4.736951571734001e-15,-6.99,-25.16,-16.46,-16.845,-25.16,6.81362238460571,6.0566666666666675
1 -> 2,0.7223720000000002,0.7223719999999998,0.722372,0.7223720000000002,0.7223720000000002,2.0014830212433605e-16,1.1102230246251565e-16,71.0,71.0,71.0,71.0,71.0,0.0,0.0,34.930000000000014,34.92999999999997,34.93,34.93,34.930000000000014,1.879919374704706e-14,-4.736951571734001e-15,8.85,-0.79,4.914999999999999,5.8,-0.79,3.705114708075851,3.213333333333333
1 -> 2,0.7223720000000002,0.7223719999999998,0.722372,0.7223720000000002,0.7223720000000002,2.0014830212433605e-16,1.1102230246251565e-16,71.0,71.0,71.0,71.0,71.0,0.0,0.0,34.930000000000014,34.92999999999997,34.93,34.93,34.930000000000014,1.879919374704706e-14,-4.736951571734001e-15,8.85,-0.79,4.914999999999999,5.8,-0.79,3.705114708075851,3.213333333333333
1 -> 2,0.7210920000000002,0.7210919999999993,0.7210919999999997,0.7210919999999998,0.7210920000000002,4.002966042486721e-16,-7.401486830834377e-17,71.0,71.0,71.0,71.0,71.0,0.0,0.0,34.930000000000014,34.92999999999997,34.93,34.93,34.930000000000014,1.879919374704706e-14,-4.736951571734001e-15,8.58,0.39,4.984999999999999,5.484999999999999,0.39,3.101858313978896,-2.73
1 -> 2,0.7210920000000002,0.7210919999999993,0.7210919999999997,0.7210919999999998,0.7210920000000002,4.002966042486721e-16,-7.401486830834377e-17,71.0,71.0,71.0,71.0,71.0,0.0,0.0,34.930000000000014,34.92999999999997,34.93,34.93,34.930000000000014,1.879919374704706e-14,-4.736951571734001e-15,8.58,0.39,4.984999999999999,5.484999999999999,0.39,3.101858313978896,-2.73
1 -> 2,0.7210920000000002,0.7210919999999993,0.7210919999999997,0.7210919999999998,0.7210920000000002,4.002966042486721e-16,-7.401486830834377e-17,71.0,71.0,71.0,71.0,71.0,0.0,0.0,34.930000000000014,34.92999999999997,34.93,34.93,34.930000000000014,1.879919374704706e-14,-4.736951571734001e-15,-3.99,-20.08,-11.8125,-11.59,-20.08,6.002380257031371,-5.363333333333332
1 -> 2,0.7210920000000002,0.7210919999999993,0.7210919999999997,0.7210919999999998,0.7210920000000002,4.002966042486721e-16,-7.401486830834377e-17,71.0,71.0,71.0,71.0,71.0,0.0,0.0,34.930000000000014,34.92999999999997,34.93,34.93,34.930000000000014,1.879919374704706e-14,-4.736951571734001e-15,-3.99,-20.08,-11.8125,-11.59,-20.08,6.002380257031371,-5.363333333333332
1 -> 2,0.7210920000000002,0.7210919999999993,0.7210919999999997,0.7210919999999998,0.7210920000000002,4.002966042486721e-16,-7.401486830834377e-17,71.0,71.0,71.0,71.0,71.0,0.0,0.0,34.930000000000014,34.92999999999997,34.93,34.93,34.930000000000014,1.879919374704706e-14,-4.736951571734001e-15,-26.25,-44.91,-35.715,-35.85,-44.91,6.971289335553358,-6.219999999999999
1 -> 2,0.7210920000000002,0.7210919999999993,0.7210919999999997,0.7210919999999998,0.7210920000000002,4.002966042486721e-16,-7.401486830834377e-17,71.0,71.0,71.0,71.0,71.0,0.0,0.0,34.930000000000014,34.92999999999997,34.93,34.93,34.930000000000014,1.879919374704706e-14,-4.736951571734001e-15,-26.25,-44.91,-35.715,-35.85,-44.91,6.971289335553358,-6.219999999999999
1 -> 2,0.7210920000000002,0.7210919999999993,0.7210919999999997,0.7210919999999998,0.7210920000000002,4.002966042486721e-16,-7.401486830834377e-17,71.0,71.0,71.0,71.0,71.0,0.0,0.0,34.930000000000014,34.92999999999997,34.93,34.93,34.930000000000014,1.879919374704706e-14,-4.736951571734001e-15,-49.86,-58.98,-54.745,-55.06999999999999,-58.98,3.3906452188337246,-3.039999999999999
1 -> 2,0.7210920000000002,0.7210919999999993,0.7210919999999997,0.7210919999999998,0.7210920000000002,4.002966042486721e-16,-7.401486830834377e-17,71.0,71.0,71.0,71.0,71.0,0.0,0.0,34.930000000000014,34.92999999999997,34.93,34.93,34.930000000000014,1.879919374704706e-14,-4.736951571734001e-15,-49.86,-58.98,-54.745,-55.06999999999999,-58.98,3.3906452188337246,-3.039999999999999
1 -> 2,0.7198110000000002,0.7198109999999999,0.7198110000000001,0.7198110000000001,0.7198110000000002,1.4686870114880517e-16,-3.700743415417188e-17,78.0,78.0,78.0,78.0,78.0,0.0,0.0,34.91000000000001,34.90999999999999,34.910000000000004,34.91000000000001,34.91000000000001,9.39959687352353e-15,7.105427357601002e-15,-62.2,-86.54,-72.81500000000001,-71.26,-86.54,9.18438484603079,-8.113333333333335
1 -> 2,0.7198110000000002,0.7198109999999999,0.7198110000000001,0.7198110000000001,0.7198110000000002,1.4686870114880517e-16,-3.700743415417188e-17,78.0,78.0,78.0,78.0,78.0,0.0,0.0,34.91000000000001,34.90999999999999,34.910000000000004,34.91000000000001,34.91000000000001,9.39959687352353e-15,7.105427357601002e-15,-62.2,-86.54,-72.81500000000001,-71.26,-86.54,9.18438484603079,-8.113333333333335
1 -> 2,0.7198110000000002,0.7198109999999999,0.7198110000000001,0.7198110000000001,0.7198110000000002,1.4686870114880517e-16,-3.700743415417188e-17,78.0,78.0,78.0,78.0,78.0,0.0,0.0,34.91000000000001,34.90999999999999,34.910000000000004,34.91000000000001,34.91000000000001,9.39959687352353e-15,7.105427357601002e-15,-101.07,-152.57,-126.80999999999999,-126.8,-152.57,19.257980164077434,-17.166666666666668
1 -> 2,0.7198110000000002,0.7198109999999999,0.7198110000000001,0.7198110000000001,0.7198110000000002,1.4686870114880517e-16,-3.700743415417188e-17,78.0,78.0,78.0,78.0,78.0,0.0,0.0,34.91000000000001,34.90999999999999,34.910000000000004,34.91000000000001,34.91000000000001,9.39959687352353e-15,7.105427357601002e-15,-101.07,-152.57,-126.80999999999999,-126.8,-152.57,19.257980164077434,-17.166666666666668
1 -> 2,0.7198110000000002,0.7198109999999999,0.7198110000000001,0.7198110000000001,0.7198110000000002,1.4686870114880517e-16,-3.700743415417188e-17,78.0,78.0,78.0,78.0,78.0,0.0,0.0,34.91000000000001,34.90999999999999,34.910000000000004,34.91000000000001,34.91000000000001,9.39959687352353e-15,7.105427357601002e-15,-167.08,-190.87,-180.5525,-182.13,-190.87,8.984568367484325,-7.929999999999997
1 -> 2,0.7198110000000002,0.7198109999999999,0.7198110000000001,0.7198110000000001,0.7198110000000002,1.4686870114880517e-16,-3.700743415417188e-17,78.0,78.0,78.0,78.0,78.0,0.0,0.0,34.91000000000001,34.90999999999999,34.910000000000004,34.91000000000001,34.91000000000001,9.39959687352353e-15,7.105427357601002e-15,-167.08,-190.87,-180.5525,-182.13,-190.87,8.984568367484325,-7.929999999999997
1 -> 2,0.7198110000000002,0.7198109999999999,0.7198110000000001,0.7198110000000001,0.7198110000000002,1.4686870114880517e-16,-3.700743415417188e-17,78.0,78.0,78.0,78.0,78.0,0.0,0.0,34.91000000000001,34.90999999999999,34.910000000000004,34.91000000000001,34.91000000000001,9.39959687352353e-15,7.105427357601002e-15,-190.2,-194.92,-193.2475,-193.935,-194.92,1.8131378188102552,1.1633333333333364
1 -> 2,0.7198110000000002,0.7198109999999999,0.7198110000000001,0.7198110000000001,0.7198110000000002,1.4686870114880517e-16,-3.700743415417188e-17,78.0,78.0,78.0,78.0,78.0,0.0,0.0,34.91000000000001,34.90999999999999,34.910000000000004,34.91000000000001,34.91000000000001,9.39959687352353e-15,7.105427357601002e-15,-190.2,-194.92,-193.2475,-193.935,-194.92,1.8131378188102552,1.1633333333333364
1 -> 2,0.7223720000000002,0.7223719999999998,0.722372,0.7223720000000002,0.7223720000000002,2.0014830212433605e-16,1.1102230246251565e-16,78.0,78.0,78.0,78.0,78.0,0.0,0.0,34.91000000000001,34.90999999999999,34.910000000000004,34.91000000000001,34.91000000000001,9.39959687352353e-15,7.105427357601002e-15,-113.35,-181.2,-150.76,-154.245,-181.2,25.54449157842058,22.616666666666664
1 -> 2,0.7223720000000002,0.7223719999999998,0.722372,0.7223720000000002,0.7223720000000002,2.0014830212433605e-16,1.1102230246251565e-16,78.0,78.0,78.0,78.0,78.0,0.0,0.0,34.91000000000001,34.90999999999999,34.910000000000004,34.91000000000001,34.91000000000001,9.39959687352353e-15,7.105427357601002e-15,-113.35,-181.2,-150.76,-154.245,-181.2,25.54449157842058,22.616666666666664
1 -> 2,0.7223720000000002,0.7223719999999998,0.722372,0.7223720000000002,0.7223720000000002,2.0014830212433605e-16,1.1102230246251565e-16,78.0,78.0,78.0,78.0,78.0,0.0,0.0,34.91000000000001,34.90999999999999,34.910000000000004,34.91000000000001,34.91000000000001,9.39959687352353e-15,7.105427357601002e-15,32.68,-78.83,-22.872500000000002,-22.669999999999998,-78.83,41.624250368625255,37.169999999999995
1 -> 2,0.7223720000000002,0.7223719999999998,0.722372,0.7223720000000002,0.7223720000000002,2.0014830212433605e-16,1.1102230246251565e-16,78.0,78.0,78.0,78.0,78.0,0.0,0.0,34.91000000000001,34.90999999999999,34.910000000000004,34.91000000000001,34.91000000000001,9.39959687352353e-15,7.105427357601002e-15,32.68,-78.83,-22.872500000000002,-22.669999999999998,-78.83,41.624250368625255,37.169999999999995
1 -> 2,0.7223720000000002,0.7223719999999998,0.722372,0.7223720000000002,0.7223720000000002,2.0014830212433605e-16,1.1102230246251565e-16,78.0,78.0,78.0,78.0,78.0,0.0,0.0,34.91000000000001,34.90999999999999,34.910000000000004,34.91000000000001,34.91000000000001,9.39959687352353e-15,7.105427357601002e-15,148.06,66.69,109.29,111.205,66.69,30.401619200299187,27.123333333333335
1 -> 2,0.7223720000000002,0.7223719999999998,0.722372,0.7223720000000002,0.7223720000000002,2.0014830212433605e-16,1.1102230246251565e-16,78.0,78.0,78.0,78.0,78.0,0.0,0.0,34.91000000000001,34.90999999999999,34.910000000000004,34.91000000000001,34.91000000000001,9.39959687352353e-15,7.105427357601002e-15,148.06,66.69,109.29,111.205,66.69,30.401619200299187,27.123333333333335
1 -> 2,0.7223720000000002,0.7223719999999998,0.722372,0.7223720000000002,0.7223720000000002,2.0014830212433605e-16,1.1102230246251565e-16,78.0,78.0,78.0,78.0,78.0,0.0,0.0,34.91000000000001,34.90999999999999,34.910000000000004,34.91000000000001,34.91000000000001,9.39959687352353e-15,7.105427357601002e-15,196.06,166.84,183.6125,185.775,166.84,11.088122868637415,9.74
1 -> 2,0.7223720000000002,0.7223719999999998,0.722372,0.7223720000000002,0.7223720000000002,2.0014830212433605e-16,1.1102230246251565e-16,78.0,78.0,78.0,78.0,78.0,0.0,0.0,34.91000000000001,34.90999999999999,34.910000000000004,34.91000000000001,34.91000000000001,9.39959687352353e-15,7.105427357601002e-15,196.06,166.84,183.6125,185.775,166.84,11.088122868637415,9.74
1 -> 2,0.7210920000000002,0.7210919999999993,0.7210919999999997,0.7210919999999998,0.7210920000000002,4.002966042486721e-16,-7.401486830834377e-17,78.0,78.0,78.0,78.0,78.0,0.0,0.0,34.91000000000001,34.90999999999999,34.910000000000004,34.91000000000001,34.91000000000001,9.39959687352353e-15,7.105427357601002e-15,198.01,186.49,193.6225,194.995,186.49,4.508366527912291,-3.839999999999994
1 -> 2,0.7210920000000002,0.7210919999999993,0.7210919999999997,0.7210919999999998,0.7210920000000002,4.002966042486721e-16,-7.401486830834377e-17,78.0,78.0,78.0,78.0,78.0,0.0,0.0,34.91000000000001,34.90999999999999,34.910000000000004,34.91000000000001,34.91000000000001,9.39959687352353e-15,7.105427357601002e-15,198.01,186.49,193.6225,194.995,186.49,4.508366527912291,-3.839999999999994
1 -> 2,0.7210920000000002,0.7210919999999993,0.7210919999999997,0.7210919999999998,0.7210920000000002,4.002966042486721e-16,-7.401486830834377e-17,78.0,78.0,78.0,78.0,78.0,0.0,0.0,34.91000000000001,34.90999999999999,34.910000000000004,34.91000000000001,34.91000000000001,9.39959687352353e-15,7.105427357601002e-15,177.06,132.36,155.945,157.18,132.36,16.724600892099037,-14.899999999999997
1 -> 2,0.7210920000000002,0.7210919999999993,0.7210919999999997,0.7210919999999998,0.7210920000000002,4.002966042486721e-16,-7.401486830834377e-17,78.0,78.0,78.0,78.0,78.0,0.0,0.0,34.91000000000001,34.90999999999999,34.910000000000004,34.91000000000001,34.91000000000001,9.39959687352353e-15,7.105427357601002e-15,177.06,132.36,155.945,157.18,132.36,16.724600892099037,-14.899999999999997
1 -> 2,0.7210920000000002,0.7210919999999993,0.7210919999999997,0.7210919999999998,0.7210920000000002,4.002966042486721e-16,-7.401486830834377e-17,78.0,78.0,78.0,78.0,78.0,0.0,0.0,34.91000000000001,34.90999999999999,34.910000000000004,34.91000000000001,34.91000000000001,9.39959687352353e-15,7.105427357601002e-15,113.75,61.19,86.765,86.06,61.19,19.634415575718062,-17.52
1 -> 2,0.7210920000000002,0.7210919999999993,0.7210919999999997,0.7210919999999998,0.7210920000000002,4.002966042486721e-16,-7.401486830834377e-17,78.0,78.0,78.0,78.0,78.0,0.0,0.0,34.91000000000001,34.90999999999999,34.910000000000004,34.91000000000001,34.91000000000001,9.39959687352353e-15,7.105427357601002e-15,113.75,61.19,86.765,86.06,61.19,19.634415575718062,-17.52
1 -> 2,0.7210920000000002,0.7210919999999993,0.7210919999999997,0.7210919999999998,0.7210920000000002,4.002966042486721e-16,-7.401486830834377e-17,78.0,78.0,78.0,78.0,78.0,0.0,0.0,34.91000000000001,34.90999999999999,34.910000000000004,34.91000000000001,34.91000000000001,9.39959687352353e-15,7.105427357601002e-15,47.59,19.55,32.6775,31.784999999999997,19.55,10.468422457562554,-9.346666666666668
1 -> 2,0.7210920000000002,0.7210919999999993,0.7210919999999997,0.7210919999999998,0.7210920000000002,4.002966042486721e-16,-7.401486830834377e-17,78.0,78.0,78.0,78.0,78.0,0.0,0.0,34.91000000000001,34.90999999999999,34.910000000000004,34.91000000000001,34.91000000000001,9.39959687352353e-15,7.105427357601002e-15,47.59,19.55,32.6775,31.784999999999997,19.55,10.468422457562554,-9.346666666666668
1 -> 2,0.7223720000000002,0.7223719999999998,0.722372,0.7223720000000002,0.7223720000000002,2.0014830212433605e-16,1.1102230246251565e-16,78.0,78.0,78.0,78.0,78.0,0.0,0.0,34.91000000000001,34.90999999999999,34.910000000000004,34.91000000000001,34.91000000000001,9.39959687352353e-15,7.105427357601002e-15,12.89,-4.61,4.0075,3.875,-4.61,6.520607237826858,-5.833333333333333
1 -> 2,0.7223720000000002,0.7223719999999998,0.722372,0.7223720000000002,0.7223720000000002,2.0014830212433605e-16,1.1102230246251565e-16,78.0,78.0,78.0,78.0,78.0,0.0,0.0,34.91000000000001,34.90999999999999,34.910000000000004,34.91000000000001,34.91000000000001,9.39959687352353e-15,7.105427357601002e-15,12.89,-4.61,4.0075,3.875,-4.61,6.520607237826858,-5.833333333333333
1 -> 2,0.7223720000000002,0.7223719999999998,0.722372,0.7223720000000002,0.7223720000000002,2.0014830212433605e-16,1.1102230246251565e-16,78.0,78.0,78.0,78.0,78.0,0.0,0.0,34.91000000000001,34.90999999999999,34.910000000000004,34.91000000000001,34.91000000000001,9.39959687352353e-15,7.105427357601002e-15,-9.81,-19.27,-15.245000000000001,-15.950000000000001,-19.27,3.611748191665637,-3.153333333333333
1 -> 2,0.7223720000000002,0.7223719999999998,0.722372,0.7223720000000002,0.7223720000000002,2.0014830212433605e-16,1.1102230246251565e-16,78.0,78.0,78.0,78.0,78.0,0.0,0.0,34.91000000000001,34.90999999999999,34.910000000000004,34.91000000000001,34.91000000000001,9.39959687352353e-15,7.105427357601002e-15,-9.81,-19.27,-15.245000000000001,-15.950000000000001,-19.27,3.611748191665637,-3.153333333333333
1 -> 2,0.7223720000000002,0.7223719999999998,0.722372,0.7223720000000002,0.7223720000000002,2.0014830212433605e-16,1.1102230246251565e-16,78.0,78.0,78.0,78.0,78.0,0.0,0.0,34.91000000000001,34.90999999999999,34.910000000000004,34.91000000000001,34.91000000000001,9.39959687352353e-15,7.105427357601002e-15,-9.57,-19.06,-14.860000000000001,-15.405,-19.06,3.5996319256279516,3.1633333333333327
1 -> 2,0.7223720000000002,0.7223719999999998,0.722372,0.7223720000000002,0.7223720000000002,2.0014830212433605e-16,1.1102230246251565e-16,78.0,78.0,78.0,78.0,78.0,0.0,0.0,34.91000000000001,34.90999999999999,34.910000000000004,34.91000000000001,34.91000000000001,9.39959687352353e-15,7.105427357601002e-15,-9.57,-19.06,-14.860000000000001,-15.405,-19.06,3.5996319256279516,3.1633333333333327
1 -> 2,0.7223720000000002,0.7223719999999998,0.722372,0.7223720000000002,0.7223720000000002,2.0014830212433605e-16,1.1102230246251565e-16,78.0,78.0,78.0,78.0,78.0,0.0,0.0,34.91000000000001,34.90999999999999,34.910000000000004,34.91000000000001,34.91000000000001,9.39959687352353e-15,7.105427357601002e-15,7.33,-5.12,1.2425000000000002,1.3800000000000001,-5.12,4.645241516864328,4.1499999999999995
1 -> 2,0.7223720000000002,0.7223719999999998,0.722372,0.7223720000000002,0.7223720000000002,2.0014830212433605e-16,1.1102230246251565e-16,78.0,78.0,78.0,78.0,78.0,0.0,0.0,34.91000000000001,34.90999999999999,34.910000000000004,34.91000000000001,34.91000000000001,9.39959687352353e-15,7.105427357601002e-15,7.33,-5.12,1.2425000000000002,1.3800000000000001,-5.12,4.645241516864328,4.1499999999999995
1 -> 2,0.7274930000000002,0.7274929999999998,0.727493,0.7274930000000001,0.7274930000000002,1.6653345369377348e-16,3.700743415417188e-17,83.88,83.88,83.88,83.88,83.88,0.0,0.0,34.890000000000015,34.88999999999999,34.89,34.89000000000001,34.890000000000015,1.0658141036401503e-14,2.3684757858670005e-15,15.64,10.71,13.7025,14.23,10.71,1.9177118527036328,1.6433333333333333
1 -> 2,0.7274930000000002,0.7274929999999998,0.727493,0.7274930000000001,0.7274930000000002,1.6653345369377348e-16,3.700743415417188e-17,83.88,83.88,83.88,83.88,83.88,0.0,0.0,34.890000000000015,34.88999999999999,34.89,34.89000000000001,34.890000000000015,1.0658141036401503e-14,2.3684757858670005e-15,15.64,10.71,13.7025,14.23,10.71,1.9177118527036328,1.6433333333333333
1 -> 2,0.7274930000000002,0.7274929999999998,0.727493,0.7274930000000001,0.7274930000000002,1.6653345369377348e-16,3.700743415417188e-17,83.88,83.88,83.88,83.88,83.88,0.0,0.0,34.890000000000015,34.88999999999999,34.89,34.89000000000001,34.890000000000015,1.0658141036401503e-14,2.3684757858670005e-15,15.09,9.6,12.52,12.695,9.6,2.0672324494357186,-1.83
1 -> 2,0.7274930000000002,0.7274929999999998,0.727493,0.7274930000000001,0.7274930000000002,1.6653345369377348e-16,3.700743415417188e-17,83.88,83.88,83.88,83.88,83.88,0.0,0.0,34.890000000000015,34.88999999999999,34.89,34.89000000000001,34.890000000000015,1.0658141036401503e-14,2.3684757858670005e-15,15.09,9.6,12.52,12.695,9.6,2.0672324494357186,-1.83
1 -> 2,0.7274930000000002,0.7274929999999998,0.727493,0.7274930000000001,0.7274930000000002,1.6653345369377348e-16,3.700743415417188e-17,83.88,83.88,83.88,83.88,83.88,0.0,0.0,34.890000000000015,34.88999999999999,34.89,34.89000000000001,34.890000000000015,1.0658141036401503e-14,2.3684757858670005e-15,7.58,3.84,5.475,5.24,3.84,1.414964663869738,-1.2466666666666668
1 -> 2,0.7274930000000002,0.7274929999999998,0.727493,0.7274930000000001,0.7274930000000002,1.6653345369377348e-16,3.700743415417188e-17,83.88,83.88,83.88,83.88,83.88,0.0,0.0,34.890000000000015,34.88999999999999,34.89,34.89000000000001,34.890000000000015,1.0658141036401503e-14,2.3684757858670005e-15,7.58,3.84,5.475,5.24,3.84,1.414964663869738,-1.2466666666666668
1 -> 2,0.7274930000000002,0.7274929999999998,0.727493,0.7274930000000001,0.7274930000000002,1.6653345369377348e-16,3.700743415417188e-17,83.88,83.88,83.88,83.88,83.88,0.0,0.0,34.890000000000015,34.88999999999999,34.89,34.89000000000001,34.890000000000015,1.0658141036401503e-14,2.3684757858670005e-15,3.56,3.2,3.4699999999999998,3.56,3.56,0.1558845726811989,-0.11999999999999995
1 -> 2,0.7274930000000002,0.7274929999999998,0.727493,0.7274930000000001,0.7274930000000002,1.6653345369377348e-16,3.700743415417188e-17,83.88,83.88,83.88,83.88,83.88,0.0,0.0,34.890000000000015,34.88999999999999,34.89,34.89000000000001,34.890000000000015,1.0658141036401503e-14,2.3684757858670005e-15,3.56,3.2,3.4699999999999998,3.56,3.56,0.1558845726811989,-0.11999999999999995
1 -> 2,0.7377360000000002,0.7377359999999996,0.737736,0.7377360000000001,0.7377360000000002,2.2887833992611187e-16,1.1102230246251565e-16,83.88,83.88,83.88,83.88,83.88,0.0,0.0,34.890000000000015,34.88999999999999,34.89,34.89000000000001,34.890000000000015,1.0658141036401503e-14,2.3684757858670005e-15,2.27,-3.36,-0.38499999999999995,-0.22499999999999998,-3.36,2.1125872763036324,-1.8766666666666667
1 -> 2,0.7377360000000002,0.7377359999999996,0.737736,0.7377360000000001,0.7377360000000002,2.2887833992611187e-16,1.1102230246251565e-16,83.88,83.88,83.88,83.88,83.88,0.0,0.0,34.890000000000015,34.88999999999999,34.89,34.89000000000001,34.890000000000015,1.0658141036401503e-14,2.3684757858670005e-15,2.27,-3.36,-0.38499999999999995,-0.22499999999999998,-3.36,2.1125872763036324,-1.8766666666666667
1 -> 2,0.7377360000000002,0.7377359999999996,0.737736,0.7377360000000001,0.7377360000000002,2.2887833992611187e-16,1.1102230246251565e-16,83.88,83.88,83.88,83.88,83.88,0.0,0.0,34.890000000000015,34.88999999999999,34.89,34.89000000000001,34.890000000000015,1.0658141036401503e-14,2.3684757858670005e-15,-5.59,-13.67,-9.4375,-9.245000000000001,-13.67,3.010393454351109,-2.6933333333333334
1 -> 2,0.7377360000000002,0.7377359999999996,0.737736,0.7377360000000001,0.7377360000000002,2.2887833992611187e-16,1.1102230246251565e-16,83.88,83.88,83.88,83.88,83.88,0.0,0.0,34.890000000000015,34.88999999999999,34.89,34.89000000000001,34.890000000000015,1.0658141036401503e-14,2.3684757858670005e-15,-5.59,-13.67,-9.4375,-9.245000000000001,-13.67,3.010393454351109,-2.6933333333333334
1 -> 2,0.7377360000000002,0.7377359999999996,0.737736,0.7377360000000001,0.7377360000000002,2.2887833992611187e-16,1.1102230246251565e-16,83.88,83.88,83.88,83.88,83.88,0.0,0.0,34.890000000000015,34.88999999999999,34.89,34.89000000000001,34.890000000000015,1.0658141036401503e-14,2.3684757858670005e-15,-17.35,-31.54,-24.182499999999997,-23.92,-31.54,5.2936961331379795,-4.7299999999999995
1 -> 2,0.7377360000000002,0.7377359999999996,0.737736,0.7377360000000001,0.7377360000000002,2.2887833992611187e-16,1.1102230246251565e-16,83.88,83.88,83.88,83.88,83.88,0.0,0.0,34.890000000000015,34.88999999999999,34.89,34.89000000000001,34.890000000000015,1.0658141036401503e-14,2.3684757858670005e-15,-17.35,-31.54,-24.182499999999997,-23.92,-31.54,5.2936961331379795,-4.7299999999999995
1 -> 2,0.7377360000000002,0.7377359999999996,0.737736,0.7377360000000001,0.7377360000000002,2.2887833992611187e-16,1.1102230246251565e-16,83.88,83.88,83.88,83.88,83.88,0.0,0.0,34.890000000000015,34.88999999999999,34.89,34.89000000000001,34.890000000000015,1.0658141036401503e-14,2.3684757858670005e-15,-37.5,-59.18,-48.145,-47.95,-59.18,8.10159397896488,-7.226666666666667
1 -> 2,0.7377360000000002,0.7377359999999996,0.737736,0.7377360000000001,0.7377360000000002,2.2887833992611187e-16,1.1102230246251565e-16,83.88,83.88,83.88,83.88,83.88,0.0,0.0,34.890000000000015,34.88999999999999,34.89,34.89000000000001,34.890000000000015,1.0658141036401503e-14,2.3684757858670005e-15,-37.5,-59.18,-48.145,-47.95,-59.18,8.10159397896488,-7.226666666666667
1 -> 2,0.7402970000000002,0.7402969999999996,0.740297,0.740297,0.7402970000000002,2.5438405243138006e-16,3.700743415417188e-17,83.88,83.88,83.88,83.88,83.88,0.0,0.0,34.890000000000015,34.88999999999999,34.89,34.89000000000001,34.890000000000015,1.0658141036401503e-14,2.3684757858670005e-15,-66.0,-73.93,-71.25500000000001,-72.545,-73.93,3.235741800576803,-2.6400000000000006
1 -> 2,0.7402970000000002,0.7402969999999996,0.740297,0.740297,0.7402970000000002,2.5438405243138006e-16,3.700743415417188e-17,83.88,83.88,83.88,83.88,83.88,0.0,0.0,34.890000000000015,34.88999999999999,34.89,34.89000000000001,34.890000000000015,1.0658141036401503e-14,2.3684757858670005e-15,-66.0,-73.93,-71.25500000000001,-72.545,-73.93,3.235741800576803,-2.6400000000000006
1 -> 2,0.7402970000000002,0.7402969999999996,0.740297,0.740297,0.7402970000000002,2.5438405243138006e-16,3.700743415417188e-17,83.88,83.88,83.88,83.88,83.88,0.0,0.0,34.890000000000015,34.88999999999999,34.89,34.89000000000001,34.890000000000015,1.0658141036401503e-14,2.3684757858670005e-15,-54.41,-71.29,-63.252500000000005,-63.655,-71.29,6.335993903879646,5.62666666666667
1 -> 2,0.7402970000000002,0.7402969999999996,0.740297,0.740297,0.7402970000000002,2.5438405243138006e-16,3.700743415417188e-17,83.88,83.88,83.88,83.88,83.88,0.0,0.0,34.890000000000015,34.88999999999999,34.89,34.89000000000001,34.890000000000015,1.0658141036401503e-14,2.3684757858670005e-15,-54.41,-71.29,-63.252500000000005,-63.655,-71.29,6.335993903879646,5.62666666666667
1 -> 2,0.7402970000000002,0.7402969999999996,0.740297,0.740297,0.7402970000000002,2.5438405243138006e-16,3.700743415417188e-17,83.88,83.88,83.88,83.88,83.88,0.0,0.0,34.890000000000015,34.88999999999999,34.89,34.89000000000001,34.890000000000015,1.0658141036401503e-14,2.3684757858670005e-15,-35.33,-48.43,-41.442499999999995,-41.004999999999995,-48.43,4.899792725207874,4.366666666666667
1 -> 2,0.7402970000000002,0.7402969999999996,0.740297,0.740297,0.7402970000000002,2.5438405243138006e-16,3.700743415417188e-17,83.88,83.88,83.88,83.88,83.88,0.0,0.0,34.890000000000015,34.88999999999999,34.89,34.89000000000001,34.890000000000015,1.0658141036401503e-14,2.3684757858670005e-15,-35.33,-48.43,-41.442499999999995,-41.004999999999995,-48.43,4.899792725207874,4.366666666666667
1 -> 2,0.7402970000000002,0.7402969999999996,0.740297,0.740297,0.7402970000000002,2.5438405243138006e-16,3.700743415417188e-17,83.88,83.88,83.88,83.88,83.88,0.0,0.0,34.890000000000015,34.88999999999999,34.89,34.89000000000001,34.890000000000015,1.0658141036401503e-14,2.3684757858670005e-15,-27.15,-32.54,-29.637500000000003,-29.43,-32.54,2.0175774458493536,1.7966666666666669
1 -> 2,0.7402970000000002,0.7402969999999996,0.740297,0.740297,0.7402970000000002,2.5438405243138006e-16,3.700743415417188e-17,83.88,83.88,83.88,83.88,83.88,0.0,0.0,34.890000000000015,34.88999999999999,34.89,34.89000000000001,34.890000000000015,1.0658141036401503e-14,2.3684757858670005e-15,-27.15,-32.54,-29.637500000000003,-29.43,-32.54,2.0175774458493536,1.7966666666666669
1 -> 2,0.7454180000000002,0.7454179999999997,0.745418,0.745418,0.7454180000000002,2.5438405243138006e-16,3.700743415417188e-17,83.88,83.88,83.88,83.88,83.88,0.0,0.0,34.890000000000015,34.88999999999999,34.89,34.89000000000001,34.890000000000015,1.0658141036401503e-14,2.3684757858670005e-15,-24.89,-26.11,-25.357499999999998,-25.215,-26.11,0.47473018652704163,0.4066666666666663
1 -> 2,0.7454180000000002,0.7454179999999997,0.745418,0.745418,0.7454180000000002,2.5438405243138006e-16,3.700743415417188e-17,83.88,83.88,83.88,83.88,83.88,0.0,0.0,34.890000000000015,34.88999999999999,34.89,34.89000000000001,34.890000000000015,1.0658141036401503e-14,2.3684757858670005e-15,-24.89,-26.11,-25.357499999999998,-25.215,-26.11,0.47473018652704163,0.4066666666666663
1 -> 2,0.7454180000000002,0.7454179999999997,0.745418,0.745418,0.7454180000000002,2.5438405243138006e-16,3.700743415417188e-17,83.88,83.88,83.88,83.88,83.88,0.0,0.0,34.890000000000015,34.88999999999999,34.89,34.89000000000001,34.890000000000015,1.0658141036401503e-14,2.3684757858670005e-15,-24.29,-24.97,-24.75,-24.869999999999997,-24.97,0.2720294101747089,0.2133333333333335
1 -> 2,0.7454180000000002,0.7454179999999997,0.745418,0.745418,0.7454180000000002,2.5438405243138006e-16,3.700743415417188e-17,83.88,83.88,83.88,83.88,83.88,0.0,0.0,34.890000000000015,34.88999999999999,34.89,34.89000000000001,34.890000000000015,1.0658141036401503e-14,2.3684757858670005e-15,-24.29,-24.97,-24.75,-24.869999999999997,-24.97,0.2720294101747089,0.2133333333333335
1 -> 2,0.7454180000000002,0.7454179999999997,0.745418,0.745418,0.7454180000000002,2.5438405243138006e-16,3.700743415417188e-17,83.88,83.88,83.88,83.88,83.88,0.0,0.0,34.890000000000015,34.88999999999999,34.89,34.89000000000001,34.890000000000015,1.0658141036401503e-14,2.3684757858670005e-15,-20.11,-23.39,-21.705,-21.659999999999997,-23.39,1.2308635180230183,1.0933333333333337
1 -> 2,0.7454180000000002,0.7454179999999997,0.745418,0.745418,0.7454180000000002,2.5438405243138006e-16,3.700743415417188e-17,83.88,83.88,83.88,83.88,83.88,0.0,0.0,34.890000000000015,34.88999999999999,34.89,34.89000000000001,34.890000000000015,1.0658141036401503e-14,2.3684757858670005e-15,-20.11,-23.39,-21.705,-21.659999999999997,-23.39,1.2308635180230183,1.0933333333333337
1 -> 2,0.7454180000000002,0.7454179999999997,0.745418,0.745418,0.7454180000000002,2.5438405243138006e-16,3.700743415417188e-17,83.88,83.88,83.88,83.88,83.88,0.0,0.0,34.890000000000015,34.88999999999999,34.89,34.89000000000001,34.890000000000015,1.0658141036401503e-14,2.3684757858670005e-15,-16.46,-19.38,-18.095,-18.27,-19.38,1.0943833880318168,0.9733333333333327
1 -> 2,0.7454180000000002,0.7454179999999997,0.745418,0.745418,0.7454180000000002,2.5438405243138006e-16,3.700743415417188e-17,83.88,83.88,83.88,83.88,83.88,0.0,0.0,34.890000000000015,34.88999999999999,34.89,34.89000000000001,34.890000000000015,1.0658141036401503e-14,2.3684757858670005e-15,-16.46,-19.38,-18.095,-18.27,-19.38,1.0943833880318168,0.9733333333333327
1 -> 2,0.7454180000000002,0.7454179999999997,0.745418,0.745418,0.7454180000000002,2.5438405243138006e-16,3.700743415417188e-17,88.44,88.44,88.44,88.44,88.44,0.0,0.0,34.890000000000015,34.88999999999999,34.89,34.89000000000001,34.890000000000015,1.0658141036401503e-14,2.3684757858670005e-15,-7.72,-14.55,-11.0925,-11.05,-14.55,2.5598669399013696,2.276666666666667
1 -> 2,0.7454180000000002,0.7454179999999997,0.745418,0.745418,0.7454180000000002,2.5438405243138006e-16,3.700743415417188e-17,88.44,88.44,88.44,88.44,88.44,0.0,0.0,34.890000000000015,34.88999999999999,34.89,34.89000000000001,34.890000000000015,1.0658141036401503e-14,2.3684757858670005e-15,-7.72,-14.55,-11.0925,-11.05,-14.55,2.5598669399013696,2.276666666666667
1 -> 2,0.7454180000000002,0.7454179999999997,0.745418,0.745418,0.7454180000000002,2.5438405243138006e-16,3.700743415417188e-17,88.44,88.44,88.44,88.44,88.44,0.0,0.0,34.890000000000015,34.88999999999999,34.89,34.89000000000001,34.890000000000015,1.0658141036401503e-14,2.3684757858670005e-15,-5.67,-8.11,-6.57,-6.25,-8.11,0.9203531930731809,-0.6299999999999999
1 -> 2,0.7454180000000002,0.7454179999999997,0.745418,0.745418,0.7454180000000002,2.5438405243138006e-16,3.700743415417188e-17,88.44,88.44,88.44,88.44,88.44,0.0,0.0,34.890000000000015,34.88999999999999,34.89,34.89000000000001,34.890000000000015,1.0658141036401503e-14,2.3684757858670005e-15,-5.67,-8.11,-6.57,-6.25,-8.11,0.9203531930731809,-0.6299999999999999
1 -> 2,0.7454180000000002,0.7454179999999997,0.745418,0.745418,0.7454180000000002,2.5438405243138006e-16,3.700743415417188e-17,88.44,88.44,88.44,88.44,88.44,0.0,0.0,34.890000000000015,34.88999999999999,34.89,34.89000000000001,34.890000000000015,1.0658141036401503e-14,2.3684757858670005e-15,-10.97,-19.43,-15.5425,-15.885000000000002,-19.43,3.2051160275409685,-2.82
1 -> 2,0.7454180000000002,0.7454179999999997,0.745418,0.745418,0.7454180000000002,2.5438405243138006e-16,3.700743415417188e-17,88.44,88.44,88.44,88.44,88.44,0.0,0.0,34.890000000000015,34.88999999999999,34.89,34.89000000000001,34.890000000000015,1.0658141036401503e-14,2.3684757858670005e-15,-10.97,-19.43,-15.5425,-15.885000000000002,-19.43,3.2051160275409685,-2.82
1 -> 2,0.7454180000000002,0.7454179999999997,0.745418,0.745418,0.7454180000000002,2.5438405243138006e-16,3.700743415417188e-17,88.44,88.44,88.44,88.44,88.44,0.0,0.0,34.890000000000015,34.88999999999999,34.89,34.89000000000001,34.890000000000015,1.0658141036401503e-14,2.3684757858670005e-15,-6.75,-19.57,-14.209999999999999,-15.26,-19.57,4.903529341199051,4.273333333333333
1 -> 2,0.7454180000000002,0.7454179999999997,0.745418,0.745418,0.7454180000000002,2.5438405243138006e-16,3.700743415417188e-17,88.44,88.44,88.44,88.44,88.44,0.0,0.0,34.890000000000015,34.88999999999999,34.89,34.89000000000001,34.890000000000015,1.0658141036401503e-14,2.3684757858670005e-15,-6.75,-19.57,-14.209999999999999,-15.26,-19.57,4.903529341199051,4.273333333333333
1 -> 2,0.7441380000000002,0.7441379999999997,0.7441380000000001,0.744138,0.7441380000000002,2.1499376424746292e-16,3.700743415417188e-17,88.44,88.44,88.44,88.44,88.44,0.0,0.0,34.890000000000015,34.88999999999999,34.89,34.89000000000001,34.890000000000015,1.0658141036401503e-14,2.3684757858670005e-15,25.19,0.94,13.252500000000001,13.44,0.94,9.06389644413483,8.083333333333334
1 -> 2,0.7441380000000002,0.7441379999999997,0.7441380000000001,0.744138,0.7441380000000002,2.1499376424746292e-16,3.700743415417188e-17,88.44,88.44,88.44,88.44,88.44,0.0,0.0,34.890000000000015,34.88999999999999,34.89,34.89000000000001,34.890000000000015,1.0658141036401503e-14,2.3684757858670005e-15,25.19,0.94,13.252500000000001,13.44,0.94,9.06389644413483,8.083333333333334
1 -> 2,0.7441380000000002,0.7441379999999997,0.7441380000000001,0.744138,0.7441380000000002,2.1499376424746292e-16,3.700743415417188e-17,88.44,88.44,88.44,88.44,88.44,0.0,0.0,34.890000000000015,34.88999999999999,34.89,34.89000000000001,34.890000000000015,1.0658141036401503e-14,2.3684757858670005e-15,41.36,31.56,37.239999999999995,38.019999999999996,31.56,3.7317020245459047,3.266666666666667
1 -> 2,0.7441380000000002,0.7441379999999997,0.7441380000000001,0.744138,0.7441380000000002,2.1499376424746292e-16,3.700743415417188e-17,88.44,88.44,88.44,88.44,88.44,0.0,0.0,34.890000000000015,34.88999999999999,34.89,34.89000000000001,34.890000000000015,1.0658141036401503e-14,2.3684757858670005e-15,41.36,31.56,37.239999999999995,38.019999999999996,31.56,3.7317020245459047,3.266666666666667
1 -> 2,0.7441380000000002,0.7441379999999997,0.7441380000000001,0.744138,0.7441380000000002,2.1499376424746292e-16,3.700743415417188e-17,88.44,88.44,88.44,88.44,88.44,0.0,0.0,34.890000000000015,34.88999999999999,34.89,34.89000000000001,34.890000000000015,1.0658141036401503e-14,2.3684757858670005e-15,41.73,35.72,39.287499999999994,39.849999999999994,35.72,2.313356598105877,-2.0033333333333325
1 -> 2,0.7441380000000002,0.7441379999999997,0.7441380000000001,0.744138,0.7441380000000002,2.1499376424746292e-16,3.700743415417188e-17,88.44,88.44,88.44,88.44,88.44,0.0,0.0,34.890000000000015,34.88999999999999,34.89,34.89000000000001,34.890000000000015,1.0658141036401503e-14,2.3684757858670005e-15,41.73,35.72,39.287499999999994,39.849999999999994,35.72,2.313356598105877,-2.0033333333333325
1 -> 2,0.7441380000000002,0.7441379999999997,0.7441380000000001,0.744138,0.7441380000000002,2.1499376424746292e-16,3.700743415417188e-17,88.44,88.44,88.44,88.44,88.44,0.0,0.0,34.890000000000015,34.88999999999999,34.89,34.89000000000001,34.890000000000015,1.0658141036401503e-14,2.3684757858670005e-15,31.77,19.9,25.595,25.355,19.9,4.452249431467199,-3.956666666666667
1 -> 2,0.7441380000000002,0.7441379999999997,0.7441380000000001,0.744138,0.7441380000000002,2.1499376424746292e-16,3.700743415417188e-17,88.44,88.44,88.44,88.44,88.44,0.0,0.0,34.890000000000015,34.88999999999999,34.89,34.89000000000001,34.890000000000015,1.0658141036401503e-14,2.3684757858670005e-15,31.77,19.9,25.595,25.355,19.9,4.452249431467199,-3.956666666666667
1 -> 2,0.7428570000000002,0.7428569999999998,0.742857,0.7428570000000001,0.7428570000000002,1.9229626863835638e-16,7.401486830834377e-17,88.44,88.44,88.44,88.44,88.44,0.0,0.0,34.890000000000015,34.88999999999999,34.89,34.89000000000001,34.890000000000015,1.0658141036401503e-14,2.3684757858670005e-15,17.64,16.37,16.8125,16.62,16.37,0.4910384404504395,-0.31666666666666643
1 -> 2,0.7428570000000002,0.7428569999999998,0.742857,0.7428570000000001,0.7428570000000002,1.9229626863835638e-16,7.401486830834377e-17,88.44,88.44,88.44,88.44,88.44,0.0,0.0,34.890000000000015,34.88999999999999,34.89,34.89000000000001,34.890000000000015,1.0658141036401503e-14,2.3684757858670005e-15,17.64,16.37,16.8125,16.62,16.37,0.4910384404504395,-0.31666666666666643
1 -> 2,0.7428570000000002,0.7428569999999998,0.742857,0.7428570000000001,0.7428570000000002,1.9229626863835638e-16,7.401486830834377e-17,88.44,88.44,88.44,88.44,88.44,0.0,0.0,34.890000000000015,34.88999999999999,34.89,34.89000000000001,34.890000000000015,1.0658141036401503e-14,2.3684757858670005e-15,17.24,16.46,16.9525,17.055,16.46,0.29439556722206184,-0.20333333333333314
1 -> 2,0.7428570000000002,0.7428569999999998,0.742857,0.7428570000000001,0.7428570000000002,1.9229626863835638e-16,7.401486830834377e-17,88.44,88.44,88.44,88.44,88.44,0.0,0.0,34.890000000000015,34.88999999999999,34.89,34.89000000000001,34.890000000000015,1.0658141036401503e-14,2.3684757858670005e-15,17.24,16.46,16.9525,17.055,16.46,0.29439556722206184,-0.20333333333333314
1 -> 2,0.7428570000000002,0.7428569999999998,0.742857,0.7428570000000001,0.7428570000000002,1.9229626863835638e-16,7.401486830834377e-17,88.44,88.44,88.44,88.44,88.44,0.0,0.0,34.890000000000015,34.88999999999999,34.89,34.89000000000001,34.890000000000015,1.0658141036401503e-14,2.3684757858670005e-15,15.52,10.46,13.202499999999999,13.415,10.46,1.8936522251987027,-1.6866666666666663
1 -> 2,0.7428570000000002,0.7428569999999998,0.742857,0.7428570000000001,0.7428570000000002,1.9229626863835638e-16,7.401486830834377e-17,88.44,88.44,88.44,88.44,88.44,0.0,0.0,34.890000000000015,34.88999999999999,34.89,34.89000000000001,34.890000000000015,1.0658141036401503e-14,2.3684757858670005e-15,15.52,10.46,13.202499999999999,13.415,10.46,1.8936522251987027,-1.6866666666666663
1 -> 2,0.7428570000000002,0.7428569999999998,0.742857,0.7428570000000001,0.7428570000000002,1.9229626863835638e-16,7.401486830834377e-17,88.44,88.44,88.44,88.44,88.44,0.0,0.0,34.890000000000015,34.88999999999999,34.89,34.89000000000001,34.890000000000015,1.0658141036401503e-14,2.3684757858670005e-15,7.66,-6.92,0.9449999999999998,1.52,-6.92,5.461764824669769,-4.86
1 -> 2,0.7428570000000002,0.7428569999999998,0.742857,0.7428570000000001,0.7428570000000002,1.9229626863835638e-16,7.401486830834377e-17,88.44,88.44,88.44,88.44,88.44,0.0,0.0,34.890000000000015,34.88999999999999,34.89,34.89000000000001,34.890000000000015,1.0658141036401503e-14,2.3684757858670005e-15,7.66,-6.92,0.9449999999999998,1.52,-6.92,5.461764824669769,-4.86
1 -> 2,0.7390160000000002,0.7390159999999996,0.739016,0.739016,0.7390160000000002,2.9373740229761033e-16,7.401486830834377e-17,88.44,88.44,88.44,88.44,88.44,0.0,0.0,34.890000000000015,34.88999999999999,34.89,34.89000000000001,34.890000000000015,1.0658141036401503e-14,2.3684757858670005e-15,-13.87,-32.32,-23.75,-24.405,-32.32,6.952851932840222,-6.150000000000001
1 -> 2,0.7390160000000002,0.7390159999999996,0.739016,0.739016,0.7390160000000002,2.9373740229761033e-16,7.401486830834377e-17,88.44,88.44,88.44,88.44,88.44,0.0,0.0,34.890000000000015,34.88999999999999,34.89,34.89000000000001,34.890000000000015,1.0658141036401503e-14,2.3684757858670005e-15,-13.87,-32.32,-23.75,-24.405,-32.32,6.952851932840222,-6.150000000000001
1 -> 2,0.7390160000000002,0.7390159999999996,0.739016,0.739016,0.7390160000000002,2.9373740229761033e-16,7.401486830834377e-17,88.44,88.44,88.44,88.44,88.44,0.0,0.0,34.890000000000015,34.88999999999999,34.89,34.89000000000001,34.890000000000015,1.0658141036401503e-14,2.3684757858670005e-15,-15.21,-33.88,-26.487500000000004,-28.43,-33.88,7.238827166744624,6.223333333333334
1 -> 2,0.7390160000000002,0.7390159999999996,0.739016,0.739016,0.7390160000000002,2.9373740229761033e-16,7.401486830834377e-17,88.44,88.44,88.44,88.44,88.44,0.0,0.0,34.890000000000015,34.88999999999999,34.89,34.89000000000001,34.890000000000015,1.0658141036401503e-14,2.3684757858670005e-15,-15.21,-33.88,-26.487500000000004,-28.43,-33.88,7.238827166744624,6.223333333333334
1 -> 2,0.7390160000000002,0.7390159999999996,0.739016,0.739016,0.7390160000000002,2.9373740229761033e-16,7.401486830834377e-17,88.44,88.44,88.44,88.44,88.44,0.0,0.0,34.890000000000015,34.88999999999999,34.89,34.89000000000001,34.890000000000015,1.0658141036401503e-14,2.3684757858670005e-15,41.12,-2.41,19.3925,19.43,-2.41,16.25998827644104,14.51
1 -> 2,0.7390160000000002,0.7390159999999996,0.739016,0.739016,0.7390160000000002,2.9373740229761033e-16,7.401486830834377e-17,88.44,88.44,88.44,88.44,88.44,0.0,0.0,34.890000000000015,34.88999999999999,34.89,34.89000000000001,34.890000000000015,1.0658141036401503e-14,2.3684757858670005e-15,41.12,-2.41,19.3925,19.43,-2.41,16.25998827644104,14.51
1 -> 2,0.7390160000000002,0.7390159999999996,0.739016,0.739016,0.7390160000000002,2.9373740229761033e-16,7.401486830834377e-17,88.44,88.44,88.44,88.44,88.44,0.0,0.0,34.890000000000015,34.88999999999999,34.89,34.89000000000001,34.890000000000015,1.0658141036401503e-14,2.3684757858670005e-15,82.79,54.15,69.4075,70.345,54.15,10.719427165198711,9.546666666666669
1 -> 2,0.7390160000000002,0.7390159999999996,0.739016,0.739016,0.7390160000000002,2.9373740229761033e-16,7.401486830834377e-17,88.44,88.44,88.44,88.44,88.44,0.0,0.0,34.890000000000015,34.88999999999999,34.89,34.89000000000001,34.890000000000015,1.0658141036401503e-14,2.3684757858670005e-15,82.79,54.15,69.4075,70.345,54.15,10.719427165198711,9.546666666666669
1 -> 2,0.7377360000000002,0.7377359999999996,0.737736,0.7377360000000001,0.7377360000000002,2.2887833992611187e-16,1.1102230246251565e-16,92.0,92.0,92.0,92.0,92.0,0.0,0.0,34.87000000000001,34.869999999999976,34.86999999999999,34.870000000000005,34.87000000000001,1.6663704229186144e-14,4.736951571734001e-15,92.85,88.38,91.19,91.765,88.38,1.681769901026892,1.1333333333333353
1 -> 2,0.7377360000000002,0.7377359999999996,0.737736,0.7377360000000001,0.7377360000000002,2.2887833992611187e-16,1.1102230246251565e-16,92.0,92.0,92.0,92.0,92.0,0.0,0.0,34.87000000000001,34.869999999999976,34.86999999999999,34.870000000000005,34.87000000000001,1.6663704229186144e-14,4.736951571734001e-15,92.85,88.38,91.19,91.765,88.38,1.681769901026892,1.1333333333333353
1 -> 2,0.7377360000000002,0.7377359999999996,0.737736,0.7377360000000001,0.7377360000000002,2.2887833992611187e-16,1.1102230246251565e-16,92.0,92.0,92.0,92.0,92.0,0.0,0.0,34.87000000000001,34.869999999999976,34.86999999999999,34.870000000000005,34.87000000000001,1.6663704229186144e-14,4.736951571734001e-15,88.85,73.86,81.66749999999999,81.97999999999999,73.86,5.611382962336466,-4.996666666666665
1 -> 2,0.7377360000000002,0.7377359999999996,0.737736,0.7377360000000001,0.7377360000000002,2.2887833992611187e-16,1.1102230246251565e-16,92.0,92.0,92.0,92.0,92.0,0.0,0.0,34.87000000000001,34.869999999999976,34.86999999999999,34.870000000000005,34.87000000000001,1.6663704229186144e-14,4.736951571734001e-15,88.85,73.86,81.66749999999999,81.97999999999999,73.86,5.611382962336466,-4.996666666666665
1 -> 2,0.7377360000000002,0.7377359999999996,0.737736,0.7377360000000001,0.7377360000000002,2.2887833992611187e-16,1.1102230246251565e-16,92.0,92.0,92.0,92.0,92.0,0.0,0.0,34.87000000000001,34.869999999999976,34.86999999999999,34.870000000000005,34.87000000000001,1.6663704229186144e-14,4.736951571734001e-15,68.17,51.04,59.607499999999995,59.61,51.04,6.385093480130108,-5.710000000000001
1 -> 2,0.7377360000000002,0.7377359999999996,0.737736,0.7377360000000001,0.7377360000000002,2.2887833992611187e-16,1.1102230246251565e-16,92.0,92.0,92.0,92.0,92.0,0.0,0.0,34.87000000000001,34.869999999999976,34.86999999999999,34.870000000000005,34.87000000000001,1.6663704229186144e-14,4.736951571734001e-15,68.17,51.04,59.607499999999995,59.61,51.04,6.385093480130108,-5.710000000000001
1 -> 2,0.7377360000000002,0.7377359999999996,0.737736,0.7377360000000001,0.7377360000000002,2.2887833992611187e-16,1.1102230246251565e-16,92.0,92.0,92.0,92.0,92.0,0.0,0.0,34.87000000000001,34.869999999999976,34.86999999999999,34.870000000000005,34.87000000000001,1.6663704229186144e-14,4.736951571734001e-15,45.31,27.7,36.5625,36.620000000000005,27.7,6.559765144423999,-5.870000000000001
1 -> 2,0.7377360000000002,0.7377359999999996,0.737736,0.7377360000000001,0.7377360000000002,2.2887833992611187e-16,1.1102230246251565e-16,92.0,92.0,92.0,92.0,92.0,0.0,0.0,34.87000000000001,34.869999999999976,34.86999999999999,34.870000000000005,34.87000000000001,1.6663704229186144e-14,4.736951571734001e-15,45.31,27.7,36.5625,36.620000000000005,27.7,6.559765144423999,-5.870000000000001
1 -> 2,0.7364560000000002,0.7364559999999997,0.736456,0.736456,0.7364559999999997,2.830524433501838e-16,0.0,92.0,92.0,92.0,92.0,92.0,0.0,0.0,34.87000000000001,34.869999999999976,34.86999999999999,34.870000000000005,34.87000000000001,1.6663704229186144e-14,4.736951571734001e-15,21.5,1.89,11.760000000000002,11.825,1.89,7.309996580026559,-6.536666666666666
1 -> 2,0.7364560000000002,0.7364559999999997,0.736456,0.736456,0.7364559999999997,2.830524433501838e-16,0.0,92.0,92.0,92.0,92.0,92.0,0.0,0.0,34.87000000000001,34.869999999999976,34.86999999999999,34.870000000000005,34.87000000000001,1.6663704229186144e-14,4.736951571734001e-15,21.5,1.89,11.760000000000002,11.825,1.89,7.309996580026559,-6.536666666666666
1 -> 2,0.7364560000000002,0.7364559999999997,0.736456,0.736456,0.7364559999999997,2.830524433501838e-16,0.0,92.0,92.0,92.0,92.0,92.0,0.0,0.0,34.87000000000001,34.869999999999976,34.86999999999999,34.870000000000005,34.87000000000001,1.6663704229186144e-14,4.736951571734001e-15,-4.94,-27.65,-16.0825,-15.870000000000001,-27.65,8.467302920647164,-7.569999999999999
1 -> 2,0.7364560000000002,0.7364559999999997,0.736456,0.736456,0.7364559999999997,2.830524433501838e-16,0.0,92.0,92.0,92.0,92.0,92.0,0.0,0.0,34.87000000000001,34.869999999999976,34.86999999999999,34.870000000000005,34.87000000000001,1.6663704229186144e-14,4.736951571734001e-15,-4.94,-27.65,-16.0825,-15.870000000000001,-27.65,8.467302920647164,-7.569999999999999
1 -> 2,0.7364560000000002,0.7364559999999997,0.736456,0.736456,0.7364559999999997,2.830524433501838e-16,0.0,92.0,92.0,92.0,92.0,92.0,0.0,0.0,34.87000000000001,34.869999999999976,34.86999999999999,34.870000000000005,34.87000000000001,1.6663704229186144e-14,4.736951571734001e-15,-35.73,-52.93,-45.29,-46.25,-52.93,6.516271940304519,-5.733333333333334
1 -> 2,0.7364560000000002,0.7364559999999997,0.736456,0.736456,0.7364559999999997,2.830524433501838e-16,0.0,92.0,92.0,92.0,92.0,92.0,0.0,0.0,34.87000000000001,34.869999999999976,34.86999999999999,34.870000000000005,34.87000000000001,1.6663704229186144e-14,4.736951571734001e-15,-35.73,-52.93,-45.29,-46.25,-52.93,6.516271940304519,-5.733333333333334
1 -> 2,0.7364560000000002,0.7364559999999997,0.736456,0.736456,0.7364559999999997,2.830524433501838e-16,0.0,92.0,92.0,92.0,92.0,92.0,0.0,0.0,34.87000000000001,34.869999999999976,34.86999999999999,34.870000000000005,34.87000000000001,1.6663704229186144e-14,4.736951571734001e-15,-38.1,-53.58,-47.074999999999996,-48.31,-53.58,5.928834202438114,5.159999999999999
1 -> 2,0.7364560000000002,0.7364559999999997,0.736456,0.736456,0.7364559999999997,2.830524433501838e-16,0.0,92.0,92.0,92.0,92.0,92.0,0.0,0.0,34.87000000000001,34.869999999999976,34.86999999999999,34.870000000000005,34.87000000000001,1.6663704229186144e-14,4.736951571734001e-15,-38.1,-53.58,-47.074999999999996,-48.31,-53.58,5.928834202438114,5.159999999999999
1 -> 2,0.7287740000000003,0.7287739999999998,0.7287740000000001,0.728774,0.7287740000000003,2.1499376424746292e-16,3.700743415417188e-17,92.0,92.0,92.0,92.0,92.0,0.0,0.0,34.87000000000001,34.869999999999976,34.86999999999999,34.870000000000005,34.87000000000001,1.6663704229186144e-14,4.736951571734001e-15,-5.99,-29.51,-17.285,-16.82,-29.51,8.795739025232615,7.840000000000001
1 -> 2,0.7287740000000003,0.7287739999999998,0.7287740000000001,0.728774,0.7287740000000003,2.1499376424746292e-16,3.700743415417188e-17,92.0,92.0,92.0,92.0,92.0,0.0,0.0,34.87000000000001,34.869999999999976,34.86999999999999,34.870000000000005,34.87000000000001,1.6663704229186144e-14,4.736951571734001e-15,-5.99,-29.51,-17.285,-16.82,-29.51,8.795739025232615,7.840000000000001
1 -> 2,0.7287740000000003,0.7287739999999998,0.7287740000000001,0.728774,0.7287740000000003,2.1499376424746292e-16,3.700743415417188e-17,92.0,92.0,92.0,92.0,92.0,0.0,0.0,34.87000000000001,34.869999999999976,34.86999999999999,34.870000000000005,34.87000000000001,1.6663704229186144e-14,4.736951571734001e-15,8.34,-0.5,4.51,5.1,-0.5,3.343964712732477,2.9466666666666668
1 -> 2,0.7287740000000003,0.7287739999999998,0.7287740000000001,0.728774,0.7287740000000003,2.1499376424746292e-16,3.700743415417188e-17,92.0,92.0,92.0,92.0,92.0,0.0,0.0,34.87000000000001,34.869999999999976,34.86999999999999,34.870000000000005,34.87000000000001,1.6663704229186144e-14,4.736951571734001e-15,8.34,-0.5,4.51,5.1,-0.5,3.343964712732477,2.9466666666666668
1 -> 2,0.7287740000000003,0.7287739999999998,0.7287740000000001,0.728774,0.7287740000000003,2.1499376424746292e-16,3.700743415417188e-17,92.0,92.0,92.0,92.0,92.0,0.0,0.0,34.87000000000001,34.869999999999976,34.86999999999999,34.870000000000005,34.87000000000001,1.6663704229186144e-14,4.736951571734001e-15,9.1,7.46,8.47,8.66,7.46,0.6558200972827837,-0.5466666666666665
1 -> 2,0.7287740000000003,0.7287739999999998,0.7287740000000001,0.728774,0.7287740000000003,2.1499376424746292e-16,3.700743415417188e-17,92.0,92.0,92.0,92.0,92.0,0.0,0.0,34.87000000000001,34.869999999999976,34.86999999999999,34.870000000000005,34.87000000000001,1.6663704229186144e-14,4.736951571734001e-15,9.1,7.46,8.47,8.66,7.46,0.6558200972827837,-0.5466666666666665
1 -> 2,0.7287740000000003,0.7287739999999998,0.7287740000000001,0.728774,0.7287740000000003,2.1499376424746292e-16,3.700743415417188e-17,92.0,92.0,92.0,92.0,92.0,0.0,0.0,34.87000000000001,34.869999999999976,34.86999999999999,34.870000000000005,34.87000000000001,1.6663704229186144e-14,4.736951571734001e-15,9.44,6.86,7.7575,7.365,6.86,1.0416903330644858,0.8599999999999998
1 -> 2,0.7287740000000003,0.7287739999999998,0.7287740000000001,0.728774,0.7287740000000003,2.1499376424746292e-16,3.700743415417188e-17,92.0,92.0,92.0,92.0,92.0,0.0,0.0,34.87000000000001,34.869999999999976,34.86999999999999,34.870000000000005,34.87000000000001,1.6663704229186144e-14,4.736951571734001e-15,9.44,6.86,7.7575,7.365,6.86,1.0416903330644858,0.8599999999999998
1 -> 2,0.7287740000000003,0.7287739999999998,0.7287740000000001,0.728774,0.7287740000000003,2.1499376424746292e-16,3.700743415417188e-17,92.0,92.0,92.0,92.0,92.0,0.0,0.0,34.87000000000001,34.869999999999976,34.86999999999999,34.870000000000005,34.87000000000001,1.6663704229186144e-14,4.736951571734001e-15,14.91,11.44,13.564999999999998,13.955,11.44,1.363387325744229,1.156666666666667
1 -> 2,0.7287740000000003,0.7287739999999998,0.7287740000000001,0.728774,0.7287740000000003,2.1499376424746292e-16,3.700743415417188e-17,92.0,92.0,92.0,92.0,92.0,0.0,0.0,34.87000000000001,34.869999999999976,34.86999999999999,34.870000000000005,34.87000000000001,1.6663704229186144e-14,4.736951571734001e-15,14.91,11.44,13.564999999999998,13.955,11.44,1.363387325744229,1.156666666666667
1 -> 2,0.7287740000000003,0.7287739999999998,0.7287740000000001,0.728774,0.7287740000000003,2.1499376424746292e-16,3.700743415417188e-17,92.0,92.0,92.0,92.0,92.0,0.0,0.0,34.87000000000001,34.869999999999976,34.86999999999999,34.870000000000005,34.87000000000001,1.6663704229186144e-14,4.736951571734001e-15,14.15,6.33,10.620000000000001,11.0,6.33,2.947244475777332,-2.606666666666667
1 -> 2,0.7287740000000003,0.7287739999999998,0.7287740000000001,0.728774,0.7287740000000003,2.1499376424746292e-16,3.700743415417188e-17,92.0,92.0,92.0,92.0,92.0,0.0,0.0,34.87000000000001,34.869999999999976,34.86999999999999,34.870000000000005,34.87000000000001,1.6663704229186144e-14,4.736951571734001e-15,14.15,6.33,10.620000000000001,11.0,6.33,2.947244475777332,-2.606666666666667
1 -> 2,0.7287740000000003,0.7287739999999998,0.7287740000000001,0.728774,0.7287740000000003,2.1499376424746292e-16,3.700743415417188e-17,92.0,92.0,92.0,92.0,92.0,0.0,0.0,34.87000000000001,34.869999999999976,34.86999999999999,34.870000000000005,34.87000000000001,1.6663704229186144e-14,4.736951571734001e-15,2.59,-9.83,-3.5324999999999998,-3.445,-9.83,4.628371068745461,-4.14
1 -> 2,0.7287740000000003,0.7287739999999998,0.7287740000000001,0.728774,0.7287740000000003,2.1499376424746292e-16,3.700743415417188e-17,92.0,92.0,92.0,92.0,92.0,0.0,0.0,34.87000000000001,34.869999999999976,34.86999999999999,34.870000000000005,34.87000000000001,1.6663704229186144e-14,4.736951571734001e-15,2.59,-9.83,-3.5324999999999998,-3.445,-9.83,4.628371068745461,-4.14
1 -> 2,0.7287740000000003,0.7287739999999998,0.7287740000000001,0.728774,0.7287740000000003,2.1499376424746292e-16,3.700743415417188e-17,92.0,92.0,92.0,92.0,92.0,0.0,0.0,34.87000000000001,34.869999999999976,34.86999999999999,34.870000000000005,34.87000000000001,1.6663704229186144e-14,4.736951571734001e-15,-14.44,-29.57,-22.012500000000003,-22.020000000000003,-29.57,5.6563830094858325,-5.043333333333334
1 -> 2,0.7287740000000003,0.7287739999999998,0.7287740000000001,0.728774,0.7287740000000003,2.1499376424746292e-16,3.700743415417188e-17,92.0,92.0,92.0,92.0,92.0,0.0,0.0,34.87000000000001,34.869999999999976,34.86999999999999,34.870000000000005,34.87000000000001,1.6663704229186144e-14,4.736951571734001e-15,-14.44,-29.57,-22.012500000000003,-22.020000000000003,-29.57,5.6563830094858325,-5.043333333333334
1 -> 2,0.7249330000000003,0.7249329999999995,0.7249329999999999,0.7249329999999999,0.7249330000000003,3.640109616122045e-16,-3.700743415417188e-17,94.09,94.09,94.09,94.09,94.09,0.0,0.0,34.930000000000014,34.92999999999997,34.93,34.93,34.930000000000014,1.879919374704706e-14,-4.736951571734001e-15,-28.62,-35.14,-32.7275,-33.575,-35.14,2.4581636947119687,1.6033333333333328
1 -> 2,0.7249330000000003,0.7249329999999995,0.7249329999999999,0.7249329999999999,0.7249330000000003,3.640109616122045e-16,-3.700743415417188e-17,94.09,94.09,94.09,94.09,94.09,0.0,0.0,34.930000000000014,34.92999999999997,34.93,34.93,34.930000000000014,1.879919374704706e-14,-4.736951571734001e-15,-28.62,-35.14,-32.7275,-33.575,-35.14,2.4581636947119687,1.6033333333333328
