PHASE,EDA_MAX,EDA_MIN,EDA_MEAN,EDA_MEDIAN,EDA_MODE,EDA_SD,HR_MAX,HR_MIN,HR_MEAN,HR_MEDIAN,HR_MODE,HR_SD,SKT_MAX,SKT_MIN,SKT_MEAN,SKT_MEDIAN,SKT_MODE,SKT_SD,BVP_MAX,BVP_MIN,BVP_MEAN,BVP_MEDIAN,BVP_MODE,BVP_SD
1 -> 2,3.6182230000000017,3.618222999999998,3.618223,3.6182230000000004,3.6182230000000017,1.6764000044290905e-15,52.0,52.0,52.0,52.0,52.0,0.0,34.65000000000001,34.649999999999984,34.650000000000006,34.650000000000006,34.65000000000001,1.3759600911837627e-14,13.5,10.03,11.8225,11.879999999999999,10.03,1.2993916845970659
1 -> 2,3.6182230000000017,3.618222999999998,3.618223,3.6182230000000004,3.6182230000000017,1.6764000044290905e-15,52.0,52.0,52.0,52.0,52.0,0.0,34.65000000000001,34.649999999999984,34.650000000000006,34.650000000000006,34.65000000000001,1.3759600911837627e-14,13.5,10.03,11.8225,11.879999999999999,10.03,1.2993916845970659
1 -> 2,3.6182230000000017,3.618222999999998,3.618223,3.6182230000000004,3.6182230000000017,1.6764000044290905e-15,52.0,52.0,52.0,52.0,52.0,0.0,34.65000000000001,34.649999999999984,34.650000000000006,34.650000000000006,34.65000000000001,1.3759600911837627e-14,8.86,5.9,7.3575,7.335,5.9,1.0993264983616102
1 -> 2,3.6182230000000017,3.618222999999998,3.618223,3.6182230000000004,3.6182230000000017,1.6764000044290905e-15,52.0,52.0,52.0,52.0,52.0,0.0,34.65000000000001,34.649999999999984,34.650000000000006,34.650000000000006,34.65000000000001,1.3759600911837627e-14,8.86,5.9,7.3575,7.335,5.9,1.0993264983616102
1 -> 2,3.6182230000000017,3.618222999999998,3.618223,3.6182230000000004,3.6182230000000017,1.6764000044290905e-15,52.0,52.0,52.0,52.0,52.0,0.0,34.65000000000001,34.649999999999984,34.650000000000006,34.650000000000006,34.65000000000001,1.3759600911837627e-14,4.75,-0.8,2.1599999999999997,2.3449999999999998,-0.8,2.0788578594988163
1 -> 2,3.6182230000000017,3.618222999999998,3.618223,3.6182230000000004,3.6182230000000017,1.6764000044290905e-15,52.0,52.0,52.0,52.0,52.0,0.0,34.65000000000001,34.649999999999984,34.650000000000006,34.650000000000006,34.65000000000001,1.3759600911837627e-14,4.75,-0.8,2.1599999999999997,2.3449999999999998,-0.8,2.0788578594988163
1 -> 2,3.6182230000000017,3.618222999999998,3.618223,3.6182230000000004,3.6182230000000017,1.6764000044290905e-15,52.0,52.0,52.0,52.0,52.0,0.0,34.65000000000001,34.649999999999984,34.650000000000006,34.650000000000006,34.65000000000001,1.3759600911837627e-14,-3.2,-9.89,-6.6325,-6.72,-9.89,2.495870339180303
1 -> 2,3.6182230000000017,3.618222999999998,3.618223,3.6182230000000004,3.6182230000000017,1.6764000044290905e-15,52.0,52.0,52.0,52.0,52.0,0.0,34.65000000000001,34.649999999999984,34.650000000000006,34.650000000000006,34.65000000000001,1.3759600911837627e-14,-3.2,-9.89,-6.6325,-6.72,-9.89,2.495870339180303
1 -> 2,3.5657300000000016,3.5657299999999967,3.56573,3.5657300000000003,3.5657300000000016,2.0471501066083613e-15,52.0,52.0,52.0,52.0,52.0,0.0,34.65000000000001,34.649999999999984,34.650000000000006,34.650000000000006,34.65000000000001,1.3759600911837627e-14,-11.83,-18.61,-15.0725,-14.925,-18.61,2.525533359510422
1 -> 2,3.5657300000000016,3.5657299999999967,3.56573,3.5657300000000003,3.5657300000000016,2.0471501066083613e-15,52.0,52.0,52.0,52.0,52.0,0.0,34.65000000000001,34.649999999999984,34.650000000000006,34.650000000000006,34.65000000000001,1.3759600911837627e-14,-11.83,-18.61,-15.0725,-14.925,-18.61,2.525533359510422
1 -> 2,3.5657300000000016,3.5657299999999967,3.56573,3.5657300000000003,3.5657300000000016,2.0471501066083613e-15,52.0,52.0,52.0,52.0,52.0,0.0,34.65000000000001,34.649999999999984,34.650000000000006,34.650000000000006,34.65000000000001,1.3759600911837627e-14,-21.66,-32.61,-27.095,-27.055,-32.61,4.09694093196375
1 -> 2,3.5657300000000016,3.5657299999999967,3.56573,3.5657300000000003,3.5657300000000016,2.0471501066083613e-15,52.0,52.0,52.0,52.0,52.0,0.0,34.65000000000001,34.649999999999984,34.650000000000006,34.650000000000006,34.65000000000001,1.3759600911837627e-14,-21.66,-32.61,-27.095,-27.055,-32.61,4.09694093196375
1 -> 2,3.5657300000000016,3.5657299999999967,3.56573,3.5657300000000003,3.5657300000000016,2.0471501066083613e-15,52.0,52.0,52.0,52.0,52.0,0.0,34.65000000000001,34.649999999999984,34.650000000000006,34.650000000000006,34.65000000000001,1.3759600911837627e-14,-31.1,-36.6,-34.6075,-35.365,-36.6,2.087742500884628
1 -> 2,3.5657300000000016,3.5657299999999967,3.56573,3.5657300000000003,3.5657300000000016,2.0471501066083613e-15,52.0,52.0,52.0,52.0,52.0,0.0,34.65000000000001,34.649999999999984,34.650000000000006,34.650000000000006,34.65000000000001,1.3759600911837627e-14,-31.1,-36.6,-34.6075,-35.365,-36.6,2.087742500884628
1 -> 2,3.5657300000000016,3.5657299999999967,3.56573,3.5657300000000003,3.5657300000000016,2.0471501066083613e-15,52.0,52.0,52.0,52.0,52.0,0.0,34.65000000000001,34.649999999999984,34.650000000000006,34.650000000000006,34.65000000000001,1.3759600911837627e-14,3.74,-24.25,-10.4325,-10.61,-24.25,10.472550727974536
1 -> 2,3.5657300000000016,3.5657299999999967,3.56573,3.5657300000000003,3.5657300000000016,2.0471501066083613e-15,52.0,52.0,52.0,52.0,52.0,0.0,34.65000000000001,34.649999999999984,34.650000000000006,34.650000000000006,34.65000000000001,1.3759600911837627e-14,3.74,-24.25,-10.4325,-10.61,-24.25,10.472550727974536
1 -> 2,3.511956000000002,3.5119559999999983,3.5119560000000005,3.5119560000000005,3.511956000000002,1.5222611172485232e-15,52.0,52.0,52.0,52.0,52.0,0.0,34.65000000000001,34.649999999999984,34.650000000000006,34.650000000000006,34.65000000000001,1.3759600911837627e-14,30.18,12.34,21.939999999999998,22.619999999999997,12.34,6.682518237910017
1 -> 2,3.511956000000002,3.5119559999999983,3.5119560000000005,3.5119560000000005,3.511956000000002,1.5222611172485232e-15,52.0,52.0,52.0,52.0,52.0,0.0,34.65000000000001,34.649999999999984,34.650000000000006,34.650000000000006,34.65000000000001,1.3759600911837627e-14,30.18,12.34,21.939999999999998,22.619999999999997,12.34,6.682518237910017
1 -> 2,3.511956000000002,3.5119559999999983,3.5119560000000005,3.5119560000000005,3.511956000000002,1.5222611172485232e-15,52.0,52.0,52.0,52.0,52.0,0.0,34.65000000000001,34.649999999999984,34.650000000000006,34.650000000000006,34.65000000000001,1.3759600911837627e-14,36.4,33.49,35.425000000000004,35.905,33.49,1.1658580531093816
1 -> 2,3.511956000000002,3.5119559999999983,3.5119560000000005,3.5119560000000005,3.511956000000002,1.5222611172485232e-15,52.0,52.0,52.0,52.0,52.0,0.0,34.65000000000001,34.649999999999984,34.650000000000006,34.650000000000006,34.65000000000001,1.3759600911837627e-14,36.4,33.49,35.425000000000004,35.905,33.49,1.1658580531093816
1 -> 2,3.511956000000002,3.5119559999999983,3.5119560000000005,3.5119560000000005,3.511956000000002,1.5222611172485232e-15,52.0,52.0,52.0,52.0,52.0,0.0,34.65000000000001,34.649999999999984,34.650000000000006,34.650000000000006,34.65000000000001,1.3759600911837627e-14,35.43,30.73,33.199999999999996,33.32,30.73,1.7594459355149272
1 -> 2,3.511956000000002,3.5119559999999983,3.5119560000000005,3.5119560000000005,3.511956000000002,1.5222611172485232e-15,52.0,52.0,52.0,52.0,52.0,0.0,34.65000000000001,34.649999999999984,34.650000000000006,34.650000000000006,34.65000000000001,1.3759600911837627e-14,35.43,30.73,33.199999999999996,33.32,30.73,1.7594459355149272
1 -> 2,3.511956000000002,3.5119559999999983,3.5119560000000005,3.5119560000000005,3.511956000000002,1.5222611172485232e-15,52.0,52.0,52.0,52.0,52.0,0.0,34.65000000000001,34.649999999999984,34.650000000000006,34.650000000000006,34.65000000000001,1.3759600911837627e-14,28.74,21.99,25.395,25.425,21.99,2.520262883113585
1 -> 2,3.511956000000002,3.5119559999999983,3.5119560000000005,3.5119560000000005,3.511956000000002,1.5222611172485232e-15,52.0,52.0,52.0,52.0,52.0,0.0,34.65000000000001,34.649999999999984,34.650000000000006,34.650000000000006,34.65000000000001,1.3759600911837627e-14,28.74,21.99,25.395,25.425,21.99,2.520262883113585
1 -> 2,3.4620230000000016,3.4620229999999976,3.462023,3.4620230000000003,3.4620230000000016,1.8038988979531736e-15,52.0,52.0,52.0,52.0,52.0,0.0,34.65000000000001,34.649999999999984,34.650000000000006,34.650000000000006,34.65000000000001,1.3759600911837627e-14,19.85,15.02,17.305,17.174999999999997,15.02,1.8025052011020668
1 -> 2,3.4620230000000016,3.4620229999999976,3.462023,3.4620230000000003,3.4620230000000016,1.8038988979531736e-15,52.0,52.0,52.0,52.0,52.0,0.0,34.65000000000001,34.649999999999984,34.650000000000006,34.650000000000006,34.65000000000001,1.3759600911837627e-14,19.85,15.02,17.305,17.174999999999997,15.02,1.8025052011020668
1 -> 2,3.4620230000000016,3.4620229999999976,3.462023,3.4620230000000003,3.4620230000000016,1.8038988979531736e-15,52.0,52.0,52.0,52.0,52.0,0.0,34.65000000000001,34.649999999999984,34.650000000000006,34.650000000000006,34.65000000000001,1.3759600911837627e-14,13.77,8.95,11.504999999999999,11.649999999999999,8.95,1.7992012116492142
1 -> 2,3.4620230000000016,3.4620229999999976,3.462023,3.4620230000000003,3.4620230000000016,1.8038988979531736e-15,52.0,52.0,52.0,52.0,52.0,0.0,34.65000000000001,34.649999999999984,34.650000000000006,34.650000000000006,34.65000000000001,1.3759600911837627e-14,13.77,8.95,11.504999999999999,11.649999999999999,8.95,1.7992012116492142
1 -> 2,3.4620230000000016,3.4620229999999976,3.462023,3.4620230000000003,3.4620230000000016,1.8038988979531736e-15,52.0,52.0,52.0,52.0,52.0,0.0,34.65000000000001,34.649999999999984,34.650000000000006,34.650000000000006,34.65000000000001,1.3759600911837627e-14,6.76,1.17,3.735,3.505,1.17,2.1104324201452176
1 -> 2,3.4620230000000016,3.4620229999999976,3.462023,3.4620230000000003,3.4620230000000016,1.8038988979531736e-15,52.0,52.0,52.0,52.0,52.0,0.0,34.65000000000001,34.649999999999984,34.650000000000006,34.650000000000006,34.65000000000001,1.3759600911837627e-14,6.76,1.17,3.735,3.505,1.17,2.1104324201452176
1 -> 2,3.4620230000000016,3.4620229999999976,3.462023,3.4620230000000003,3.4620230000000016,1.8038988979531736e-15,52.0,52.0,52.0,52.0,52.0,0.0,34.65000000000001,34.649999999999984,34.650000000000006,34.650000000000006,34.65000000000001,1.3759600911837627e-14,1.72,0.65,1.1724999999999999,1.16,0.65,0.42393248283187734
1 -> 2,3.4620230000000016,3.4620229999999976,3.462023,3.4620230000000003,3.4620230000000016,1.8038988979531736e-15,52.0,52.0,52.0,52.0,52.0,0.0,34.65000000000001,34.649999999999984,34.650000000000006,34.650000000000006,34.65000000000001,1.3759600911837627e-14,1.72,0.65,1.1724999999999999,1.16,0.65,0.42393248283187734
1 -> 2,3.4082500000000016,3.4082499999999993,3.4082500000000007,3.4082500000000007,3.4082500000000016,1.0175362097255202e-15,78.5,78.5,78.5,78.5,78.5,0.0,34.65000000000001,34.649999999999984,34.650000000000006,34.650000000000006,34.65000000000001,1.3759600911837627e-14,1.23,-4.78,-1.5550000000000002,-1.335,-4.78,2.272207076830807
1 -> 2,3.4082500000000016,3.4082499999999993,3.4082500000000007,3.4082500000000007,3.4082500000000016,1.0175362097255202e-15,78.5,78.5,78.5,78.5,78.5,0.0,34.65000000000001,34.649999999999984,34.650000000000006,34.650000000000006,34.65000000000001,1.3759600911837627e-14,1.23,-4.78,-1.5550000000000002,-1.335,-4.78,2.272207076830807
1 -> 2,3.4082500000000016,3.4082499999999993,3.4082500000000007,3.4082500000000007,3.4082500000000016,1.0175362097255202e-15,78.5,78.5,78.5,78.5,78.5,0.0,34.65000000000001,34.649999999999984,34.650000000000006,34.650000000000006,34.65000000000001,1.3759600911837627e-14,-5.26,-7.38,-6.5375,-6.755,-7.38,0.7881108741795155
1 -> 2,3.4082500000000016,3.4082499999999993,3.4082500000000007,3.4082500000000007,3.4082500000000016,1.0175362097255202e-15,78.5,78.5,78.5,78.5,78.5,0.0,34.65000000000001,34.649999999999984,34.650000000000006,34.650000000000006,34.65000000000001,1.3759600911837627e-14,-5.26,-7.38,-6.5375,-6.755,-7.38,0.7881108741795155
1 -> 2,3.4082500000000016,3.4082499999999993,3.4082500000000007,3.4082500000000007,3.4082500000000016,1.0175362097255202e-15,78.5,78.5,78.5,78.5,78.5,0.0,34.65000000000001,34.649999999999984,34.650000000000006,34.650000000000006,34.65000000000001,1.3759600911837627e-14,6.46,-2.71,1.92,1.965,-2.71,3.4329506259193416
1 -> 2,3.4082500000000016,3.4082499999999993,3.4082500000000007,3.4082500000000007,3.4082500000000016,1.0175362097255202e-15,78.5,78.5,78.5,78.5,78.5,0.0,34.65000000000001,34.649999999999984,34.650000000000006,34.650000000000006,34.65000000000001,1.3759600911837627e-14,6.46,-2.71,1.92,1.965,-2.71,3.4329506259193416
1 -> 2,3.4082500000000016,3.4082499999999993,3.4082500000000007,3.4082500000000007,3.4082500000000016,1.0175362097255202e-15,78.5,78.5,78.5,78.5,78.5,0.0,34.65000000000001,34.649999999999984,34.650000000000006,34.650000000000006,34.65000000000001,1.3759600911837627e-14,11.66,8.69,10.322500000000002,10.469999999999999,8.69,1.0938778496706112
1 -> 2,3.4082500000000016,3.4082499999999993,3.4082500000000007,3.4082500000000007,3.4082500000000016,1.0175362097255202e-15,78.5,78.5,78.5,78.5,78.5,0.0,34.65000000000001,34.649999999999984,34.650000000000006,34.650000000000006,34.65000000000001,1.3759600911837627e-14,11.66,8.69,10.322500000000002,10.469999999999999,8.69,1.0938778496706112
1 -> 2,3.4684250000000016,3.4684249999999985,3.468425,3.4684250000000003,3.4684250000000016,1.4895204919483639e-15,78.5,78.5,78.5,78.5,78.5,0.0,34.65000000000001,34.649999999999984,34.650000000000006,34.650000000000006,34.65000000000001,1.3759600911837627e-14,35.64,13.61,23.07,21.515,13.61,8.35240384560038
1 -> 2,3.4684250000000016,3.4684249999999985,3.468425,3.4684250000000003,3.4684250000000016,1.4895204919483639e-15,78.5,78.5,78.5,78.5,78.5,0.0,34.65000000000001,34.649999999999984,34.650000000000006,34.650000000000006,34.65000000000001,1.3759600911837627e-14,35.64,13.61,23.07,21.515,13.61,8.35240384560038
1 -> 2,3.4684250000000016,3.4684249999999985,3.468425,3.4684250000000003,3.4684250000000016,1.4895204919483639e-15,78.5,78.5,78.5,78.5,78.5,0.0,34.65000000000001,34.649999999999984,34.650000000000006,34.650000000000006,34.65000000000001,1.3759600911837627e-14,90.09,48.61,69.6575,69.965,48.61,15.50283421668438
1 -> 2,3.4684250000000016,3.4684249999999985,3.468425,3.4684250000000003,3.4684250000000016,1.4895204919483639e-15,78.5,78.5,78.5,78.5,78.5,0.0,34.65000000000001,34.649999999999984,34.650000000000006,34.650000000000006,34.65000000000001,1.3759600911837627e-14,90.09,48.61,69.6575,69.965,48.61,15.50283421668438
1 -> 2,3.4684250000000016,3.4684249999999985,3.468425,3.4684250000000003,3.4684250000000016,1.4895204919483639e-15,78.5,78.5,78.5,78.5,78.5,0.0,34.65000000000001,34.649999999999984,34.650000000000006,34.650000000000006,34.65000000000001,1.3759600911837627e-14,121.28,101.26,112.44,113.61,101.26,7.555143943036423
1 -> 2,3.4684250000000016,3.4684249999999985,3.468425,3.4684250000000003,3.4684250000000016,1.4895204919483639e-15,78.5,78.5,78.5,78.5,78.5,0.0,34.65000000000001,34.649999999999984,34.650000000000006,34.650000000000006,34.65000000000001,1.3759600911837627e-14,121.28,101.26,112.44,113.61,101.26,7.555143943036423
1 -> 2,3.4684250000000016,3.4684249999999985,3.468425,3.4684250000000003,3.4684250000000016,1.4895204919483639e-15,78.5,78.5,78.5,78.5,78.5,0.0,34.65000000000001,34.649999999999984,34.650000000000006,34.650000000000006,34.65000000000001,1.3759600911837627e-14,123.04,112.5,119.045,120.32,112.5,4.139091083800889
1 -> 2,3.4684250000000016,3.4684249999999985,3.468425,3.4684250000000003,3.4684250000000016,1.4895204919483639e-15,78.5,78.5,78.5,78.5,78.5,0.0,34.65000000000001,34.649999999999984,34.650000000000006,34.650000000000006,34.65000000000001,1.3759600911837627e-14,123.04,112.5,119.045,120.32,112.5,4.139091083800889
1 -> 2,3.506835000000002,3.506835,3.506835000000001,3.5068350000000015,3.506835000000002,8.005932084973442e-16,78.5,78.5,78.5,78.5,78.5,0.0,34.65000000000001,34.649999999999984,34.650000000000006,34.650000000000006,34.65000000000001,1.3759600911837627e-14,104.68,78.67,91.53750000000001,91.4,78.67,9.722639495013688
1 -> 2,3.506835000000002,3.506835,3.506835000000001,3.5068350000000015,3.506835000000002,8.005932084973442e-16,78.5,78.5,78.5,78.5,78.5,0.0,34.65000000000001,34.649999999999984,34.650000000000006,34.650000000000006,34.65000000000001,1.3759600911837627e-14,104.68,78.67,91.53750000000001,91.4,78.67,9.722639495013688
1 -> 2,3.506835000000002,3.506835,3.506835000000001,3.5068350000000015,3.506835000000002,8.005932084973442e-16,78.5,78.5,78.5,78.5,78.5,0.0,34.65000000000001,34.649999999999984,34.650000000000006,34.650000000000006,34.65000000000001,1.3759600911837627e-14,71.5,57.6,63.94499999999999,63.34,57.6,5.211743949965308
1 -> 2,3.506835000000002,3.506835,3.506835000000001,3.5068350000000015,3.506835000000002,8.005932084973442e-16,78.5,78.5,78.5,78.5,78.5,0.0,34.65000000000001,34.649999999999984,34.650000000000006,34.650000000000006,34.65000000000001,1.3759600911837627e-14,71.5,57.6,63.94499999999999,63.34,57.6,5.211743949965308
1 -> 2,3.506835000000002,3.506835,3.506835000000001,3.5068350000000015,3.506835000000002,8.005932084973442e-16,78.5,78.5,78.5,78.5,78.5,0.0,34.65000000000001,34.649999999999984,34.650000000000006,34.650000000000006,34.65000000000001,1.3759600911837627e-14,55.21,52.47,53.5875,53.334999999999994,52.47,1.0393357253553839
1 -> 2,3.506835000000002,3.506835,3.506835000000001,3.5068350000000015,3.506835000000002,8.005932084973442e-16,78.5,78.5,78.5,78.5,78.5,0.0,34.65000000000001,34.649999999999984,34.650000000000006,34.650000000000006,34.65000000000001,1.3759600911837627e-14,55.21,52.47,53.5875,53.334999999999994,52.47,1.0393357253553839
1 -> 2,3.506835000000002,3.506835,3.506835000000001,3.5068350000000015,3.506835000000002,8.005932084973442e-16,78.5,78.5,78.5,78.5,78.5,0.0,34.65000000000001,34.649999999999984,34.650000000000006,34.650000000000006,34.65000000000001,1.3759600911837627e-14,51.8,43.65,48.3825,49.04,43.65,3.0994061931279675
1 -> 2,3.506835000000002,3.506835,3.506835000000001,3.5068350000000015,3.506835000000002,8.005932084973442e-16,78.5,78.5,78.5,78.5,78.5,0.0,34.65000000000001,34.649999999999984,34.650000000000006,34.650000000000006,34.65000000000001,1.3759600911837627e-14,51.8,43.65,48.3825,49.04,43.65,3.0994061931279675
1 -> 2,3.5631690000000016,3.563168999999999,3.5631690000000007,3.5631690000000007,3.5631690000000016,1.1749496091904413e-15,78.5,78.5,78.5,78.5,78.5,0.0,34.65000000000001,34.649999999999984,34.650000000000006,34.650000000000006,34.65000000000001,1.3759600911837627e-14,38.11,14.06,26.6325,27.18,14.06,8.986705110884634
1 -> 2,3.5631690000000016,3.563168999999999,3.5631690000000007,3.5631690000000007,3.5631690000000016,1.1749496091904413e-15,78.5,78.5,78.5,78.5,78.5,0.0,34.65000000000001,34.649999999999984,34.650000000000006,34.650000000000006,34.65000000000001,1.3759600911837627e-14,38.11,14.06,26.6325,27.18,14.06,8.986705110884634
1 -> 2,3.5631690000000016,3.563168999999999,3.5631690000000007,3.5631690000000007,3.5631690000000016,1.1749496091904413e-15,78.5,78.5,78.5,78.5,78.5,0.0,34.65000000000001,34.649999999999984,34.650000000000006,34.650000000000006,34.65000000000001,1.3759600911837627e-14,4.22,-26.97,-11.355,-11.335,-26.97,11.632068818572215
1 -> 2,3.5631690000000016,3.563168999999999,3.5631690000000007,3.5631690000000007,3.5631690000000016,1.1749496091904413e-15,78.5,78.5,78.5,78.5,78.5,0.0,34.65000000000001,34.649999999999984,34.650000000000006,34.650000000000006,34.65000000000001,1.3759600911837627e-14,4.22,-26.97,-11.355,-11.335,-26.97,11.632068818572215
1 -> 2,3.5631690000000016,3.563168999999999,3.5631690000000007,3.5631690000000007,3.5631690000000016,1.1749496091904413e-15,78.5,78.5,78.5,78.5,78.5,0.0,34.65000000000001,34.649999999999984,34.650000000000006,34.650000000000006,34.65000000000001,1.3759600911837627e-14,-37.21,-68.68,-52.7875,-52.63,-68.68,11.721432026420665
1 -> 2,3.5631690000000016,3.563168999999999,3.5631690000000007,3.5631690000000007,3.5631690000000016,1.1749496091904413e-15,78.5,78.5,78.5,78.5,78.5,0.0,34.65000000000001,34.649999999999984,34.650000000000006,34.650000000000006,34.65000000000001,1.3759600911837627e-14,-37.21,-68.68,-52.7875,-52.63,-68.68,11.721432026420665
1 -> 2,3.5631690000000016,3.563168999999999,3.5631690000000007,3.5631690000000007,3.5631690000000016,1.1749496091904413e-15,78.5,78.5,78.5,78.5,78.5,0.0,34.65000000000001,34.649999999999984,34.650000000000006,34.650000000000006,34.65000000000001,1.3759600911837627e-14,-80.06,-116.63,-98.1975,-98.05000000000001,-116.63,13.635232625445006
1 -> 2,3.5631690000000016,3.563168999999999,3.5631690000000007,3.5631690000000007,3.5631690000000016,1.1749496091904413e-15,78.5,78.5,78.5,78.5,78.5,0.0,34.65000000000001,34.649999999999984,34.650000000000006,34.650000000000006,34.65000000000001,1.3759600911837627e-14,-80.06,-116.63,-98.1975,-98.05000000000001,-116.63,13.635232625445006
1 -> 2,3.6182230000000017,3.618222999999998,3.618223,3.6182230000000004,3.6182230000000017,1.6764000044290905e-15,69.67,69.67,69.67,69.67,69.67,0.0,34.66000000000001,34.65999999999998,34.66,34.66,34.66000000000001,1.2809491335957507e-14,-129.22,-167.31,-148.245,-148.225,-167.31,14.194573787190654
1 -> 2,3.6182230000000017,3.618222999999998,3.618223,3.6182230000000004,3.6182230000000017,1.6764000044290905e-15,69.67,69.67,69.67,69.67,69.67,0.0,34.66000000000001,34.65999999999998,34.66,34.66,34.66000000000001,1.2809491335957507e-14,-129.22,-167.31,-148.245,-148.225,-167.31,14.194573787190654
1 -> 2,3.6182230000000017,3.618222999999998,3.618223,3.6182230000000004,3.6182230000000017,1.6764000044290905e-15,69.67,69.67,69.67,69.67,69.67,0.0,34.66000000000001,34.65999999999998,34.66,34.66,34.66000000000001,1.2809491335957507e-14,-180.1,-215.31,-198.27249999999998,-198.84,-215.31,13.173111581930824
1 -> 2,3.6182230000000017,3.618222999999998,3.618223,3.6182230000000004,3.6182230000000017,1.6764000044290905e-15,69.67,69.67,69.67,69.67,69.67,0.0,34.66000000000001,34.65999999999998,34.66,34.66,34.66000000000001,1.2809491335957507e-14,-180.1,-215.31,-198.27249999999998,-198.84,-215.31,13.173111581930824
1 -> 2,3.6182230000000017,3.618222999999998,3.618223,3.6182230000000004,3.6182230000000017,1.6764000044290905e-15,69.67,69.67,69.67,69.67,69.67,0.0,34.66000000000001,34.65999999999998,34.66,34.66,34.66000000000001,1.2809491335957507e-14,-211.45,-224.94,-220.06,-221.925,-224.94,5.139537916972696
1 -> 2,3.6182230000000017,3.618222999999998,3.618223,3.6182230000000004,3.6182230000000017,1.6764000044290905e-15,69.67,69.67,69.67,69.67,69.67,0.0,34.66000000000001,34.65999999999998,34.66,34.66,34.66000000000001,1.2809491335957507e-14,-211.45,-224.94,-220.06,-221.925,-224.94,5.139537916972696
1 -> 2,3.6182230000000017,3.618222999999998,3.618223,3.6182230000000004,3.6182230000000017,1.6764000044290905e-15,69.67,69.67,69.67,69.67,69.67,0.0,34.66000000000001,34.65999999999998,34.66,34.66,34.66000000000001,1.2809491335957507e-14,-139.09,-196.33,-167.85000000000002,-167.99,-196.33,21.400574758636747
1 -> 2,3.6182230000000017,3.618222999999998,3.618223,3.6182230000000004,3.6182230000000017,1.6764000044290905e-15,69.67,69.67,69.67,69.67,69.67,0.0,34.66000000000001,34.65999999999998,34.66,34.66,34.66000000000001,1.2809491335957507e-14,-139.09,-196.33,-167.85000000000002,-167.99,-196.33,21.400574758636747
1 -> 2,3.6604740000000016,3.660474,3.6604740000000007,3.6604740000000007,3.660474,8.881784197001252e-16,69.67,69.67,69.67,69.67,69.67,0.0,34.66000000000001,34.65999999999998,34.66,34.66,34.66000000000001,1.2809491335957507e-14,-78.29,-121.69,-99.47,-98.94999999999999,-121.69,16.15963644393029
1 -> 2,3.6604740000000016,3.660474,3.6604740000000007,3.6604740000000007,3.660474,8.881784197001252e-16,69.67,69.67,69.67,69.67,69.67,0.0,34.66000000000001,34.65999999999998,34.66,34.66,34.66000000000001,1.2809491335957507e-14,-78.29,-121.69,-99.47,-98.94999999999999,-121.69,16.15963644393029
1 -> 2,3.6604740000000016,3.660474,3.6604740000000007,3.6604740000000007,3.660474,8.881784197001252e-16,69.67,69.67,69.67,69.67,69.67,0.0,34.66000000000001,34.65999999999998,34.66,34.66,34.66000000000001,1.2809491335957507e-14,-26.54,-65.02,-45.57749999999999,-45.375,-65.02,14.353672657198226
1 -> 2,3.6604740000000016,3.660474,3.6604740000000007,3.6604740000000007,3.660474,8.881784197001252e-16,69.67,69.67,69.67,69.67,69.67,0.0,34.66000000000001,34.65999999999998,34.66,34.66,34.66000000000001,1.2809491335957507e-14,-26.54,-65.02,-45.57749999999999,-45.375,-65.02,14.353672657198226
1 -> 2,3.6604740000000016,3.660474,3.6604740000000007,3.6604740000000007,3.660474,8.881784197001252e-16,69.67,69.67,69.67,69.67,69.67,0.0,34.66000000000001,34.65999999999998,34.66,34.66,34.66000000000001,1.2809491335957507e-14,9.89,-15.15,-1.7550000000000008,-0.8799999999999999,-15.15,9.380984756410172
1 -> 2,3.6604740000000016,3.660474,3.6604740000000007,3.6604740000000007,3.660474,8.881784197001252e-16,69.67,69.67,69.67,69.67,69.67,0.0,34.66000000000001,34.65999999999998,34.66,34.66,34.66000000000001,1.2809491335957507e-14,9.89,-15.15,-1.7550000000000008,-0.8799999999999999,-15.15,9.380984756410172
1 -> 2,3.6604740000000016,3.660474,3.6604740000000007,3.6604740000000007,3.660474,8.881784197001252e-16,69.67,69.67,69.67,69.67,69.67,0.0,34.66000000000001,34.65999999999998,34.66,34.66,34.66000000000001,1.2809491335957507e-14,17.44,14.45,16.255000000000003,16.564999999999998,14.45,1.1347797143058211
1 -> 2,3.6604740000000016,3.660474,3.6604740000000007,3.6604740000000007,3.660474,8.881784197001252e-16,69.67,69.67,69.67,69.67,69.67,0.0,34.66000000000001,34.65999999999998,34.66,34.66,34.66000000000001,1.2809491335957507e-14,17.44,14.45,16.255000000000003,16.564999999999998,14.45,1.1347797143058211
1 -> 2,3.6771190000000016,3.677118999999999,3.6771190000000002,3.677119000000001,3.6771190000000016,1.1537776118301384e-15,69.67,69.67,69.67,69.67,69.67,0.0,34.66000000000001,34.65999999999998,34.66,34.66,34.66000000000001,1.2809491335957507e-14,13.6,3.61,8.5725,8.54,3.61,3.7403032965255636
1 -> 2,3.6771190000000016,3.677118999999999,3.6771190000000002,3.677119000000001,3.6771190000000016,1.1537776118301384e-15,69.67,69.67,69.67,69.67,69.67,0.0,34.66000000000001,34.65999999999998,34.66,34.66,34.66000000000001,1.2809491335957507e-14,13.6,3.61,8.5725,8.54,3.61,3.7403032965255636
1 -> 2,3.6771190000000016,3.677118999999999,3.6771190000000002,3.677119000000001,3.6771190000000016,1.1537776118301384e-15,69.67,69.67,69.67,69.67,69.67,0.0,34.66000000000001,34.65999999999998,34.66,34.66,34.66000000000001,1.2809491335957507e-14,0.92,-5.88,-2.4425,-2.4050000000000002,-5.88,2.5196267084629818
1 -> 2,3.6771190000000016,3.677118999999999,3.6771190000000002,3.677119000000001,3.6771190000000016,1.1537776118301384e-15,69.67,69.67,69.67,69.67,69.67,0.0,34.66000000000001,34.65999999999998,34.66,34.66,34.66000000000001,1.2809491335957507e-14,0.92,-5.88,-2.4425,-2.4050000000000002,-5.88,2.5196267084629818
1 -> 2,3.6771190000000016,3.677118999999999,3.6771190000000002,3.677119000000001,3.6771190000000016,1.1537776118301384e-15,69.67,69.67,69.67,69.67,69.67,0.0,34.66000000000001,34.65999999999998,34.66,34.66,34.66000000000001,1.2809491335957507e-14,-9.01,-25.34,-16.585,-15.995,-25.34,6.119577191277188
1 -> 2,3.6771190000000016,3.677118999999999,3.6771190000000002,3.677119000000001,3.6771190000000016,1.1537776118301384e-15,69.67,69.67,69.67,69.67,69.67,0.0,34.66000000000001,34.65999999999998,34.66,34.66,34.66000000000001,1.2809491335957507e-14,-9.01,-25.34,-16.585,-15.995,-25.34,6.119577191277188
1 -> 2,3.6771190000000016,3.677118999999999,3.6771190000000002,3.677119000000001,3.6771190000000016,1.1537776118301384e-15,69.67,69.67,69.67,69.67,69.67,0.0,34.66000000000001,34.65999999999998,34.66,34.66,34.66000000000001,1.2809491335957507e-14,-32.43,-45.72,-40.2525,-41.43000000000001,-45.72,5.135033471166474
1 -> 2,3.6771190000000016,3.677118999999999,3.6771190000000002,3.677119000000001,3.6771190000000016,1.1537776118301384e-15,69.67,69.67,69.67,69.67,69.67,0.0,34.66000000000001,34.65999999999998,34.66,34.66,34.66000000000001,1.2809491335957507e-14,-32.43,-45.72,-40.2525,-41.43000000000001,-45.72,5.135033471166474
1 -> 2,3.683520000000002,3.683519999999999,3.683520000000001,3.6835200000000015,3.683520000000002,1.2947314098277875e-15,69.67,69.67,69.67,69.67,69.67,0.0,34.66000000000001,34.65999999999998,34.66,34.66,34.66000000000001,1.2809491335957507e-14,-17.37,-43.85,-32.04,-33.47,-43.85,10.011381023615074
1 -> 2,3.683520000000002,3.683519999999999,3.683520000000001,3.6835200000000015,3.683520000000002,1.2947314098277875e-15,69.67,69.67,69.67,69.67,69.67,0.0,34.66000000000001,34.65999999999998,34.66,34.66,34.66000000000001,1.2809491335957507e-14,-17.37,-43.85,-32.04,-33.47,-43.85,10.011381023615074
1 -> 2,3.683520000000002,3.683519999999999,3.683520000000001,3.6835200000000015,3.683520000000002,1.2947314098277875e-15,69.67,69.67,69.67,69.67,69.67,0.0,34.66000000000001,34.65999999999998,34.66,34.66,34.66000000000001,1.2809491335957507e-14,27.63,-4.86,12.135,12.885,-4.86,12.151749873989344
1 -> 2,3.683520000000002,3.683519999999999,3.683520000000001,3.6835200000000015,3.683520000000002,1.2947314098277875e-15,69.67,69.67,69.67,69.67,69.67,0.0,34.66000000000001,34.65999999999998,34.66,34.66,34.66000000000001,1.2809491335957507e-14,27.63,-4.86,12.135,12.885,-4.86,12.151749873989344
1 -> 2,3.683520000000002,3.683519999999999,3.683520000000001,3.6835200000000015,3.683520000000002,1.2947314098277875e-15,69.67,69.67,69.67,69.67,69.67,0.0,34.66000000000001,34.65999999999998,34.66,34.66,34.66000000000001,1.2809491335957507e-14,46.78,34.91,41.5725,42.3,34.91,4.472562883850825
1 -> 2,3.683520000000002,3.683519999999999,3.683520000000001,3.6835200000000015,3.683520000000002,1.2947314098277875e-15,69.67,69.67,69.67,69.67,69.67,0.0,34.66000000000001,34.65999999999998,34.66,34.66,34.66000000000001,1.2809491335957507e-14,46.78,34.91,41.5725,42.3,34.91,4.472562883850825
1 -> 2,3.683520000000002,3.683519999999999,3.683520000000001,3.6835200000000015,3.683520000000002,1.2947314098277875e-15,69.67,69.67,69.67,69.67,69.67,0.0,34.66000000000001,34.65999999999998,34.66,34.66,34.66000000000001,1.2809491335957507e-14,49.13,48.28,48.835,48.965,48.28,0.32791004864139206
1 -> 2,3.683520000000002,3.683519999999999,3.683520000000001,3.6835200000000015,3.683520000000002,1.2947314098277875e-15,69.67,69.67,69.67,69.67,69.67,0.0,34.66000000000001,34.65999999999998,34.66,34.66,34.66000000000001,1.2809491335957507e-14,49.13,48.28,48.835,48.965,48.28,0.32791004864139206
1 -> 2,3.678399000000002,3.6783989999999998,3.6783990000000006,3.6783990000000006,3.6783989999999998,1.1322097734007351e-15,74.25,74.25,74.25,74.25,74.25,0.0,34.63000000000002,34.62999999999999,34.63,34.63000000000001,34.63000000000002,1.2809491335957507e-14,48.59,47.47,48.04750000000001,48.065,47.47,0.4152333681196652
1 -> 2,3.678399000000002,3.6783989999999998,3.6783990000000006,3.6783990000000006,3.6783989999999998,1.1322097734007351e-15,74.25,74.25,74.25,74.25,74.25,0.0,34.63000000000002,34.62999999999999,34.63,34.63000000000001,34.63000000000002,1.2809491335957507e-14,48.59,47.47,48.04750000000001,48.065,47.47,0.4152333681196652
1 -> 2,3.678399000000002,3.6783989999999998,3.6783990000000006,3.6783990000000006,3.6783989999999998,1.1322097734007351e-15,74.25,74.25,74.25,74.25,74.25,0.0,34.63000000000002,34.62999999999999,34.63,34.63000000000001,34.63000000000002,1.2809491335957507e-14,46.84,43.46,45.2425,45.335,43.46,1.26795849695485
1 -> 2,3.678399000000002,3.6783989999999998,3.6783990000000006,3.6783990000000006,3.6783989999999998,1.1322097734007351e-15,74.25,74.25,74.25,74.25,74.25,0.0,34.63000000000002,34.62999999999999,34.63,34.63000000000001,34.63000000000002,1.2809491335957507e-14,46.84,43.46,45.2425,45.335,43.46,1.26795849695485
1 -> 2,3.678399000000002,3.6783989999999998,3.6783990000000006,3.6783990000000006,3.6783989999999998,1.1322097734007351e-15,74.25,74.25,74.25,74.25,74.25,0.0,34.63000000000002,34.62999999999999,34.63,34.63000000000001,34.63000000000002,1.2809491335957507e-14,42.19,38.53,40.4025,40.445,38.53,1.3570441223482745
1 -> 2,3.678399000000002,3.6783989999999998,3.6783990000000006,3.6783990000000006,3.6783989999999998,1.1322097734007351e-15,74.25,74.25,74.25,74.25,74.25,0.0,34.63000000000002,34.62999999999999,34.63,34.63000000000001,34.63000000000002,1.2809491335957507e-14,42.19,38.53,40.4025,40.445,38.53,1.3570441223482745
1 -> 2,3.678399000000002,3.6783989999999998,3.6783990000000006,3.6783990000000006,3.6783989999999998,1.1322097734007351e-15,74.25,74.25,74.25,74.25,74.25,0.0,34.63000000000002,34.62999999999999,34.63,34.63000000000001,34.63000000000002,1.2809491335957507e-14,36.79,28.41,32.8425,33.085,28.41,3.1365536421365405
1 -> 2,3.678399000000002,3.6783989999999998,3.6783990000000006,3.6783990000000006,3.6783989999999998,1.1322097734007351e-15,74.25,74.25,74.25,74.25,74.25,0.0,34.63000000000002,34.62999999999999,34.63,34.63000000000001,34.63000000000002,1.2809491335957507e-14,36.79,28.41,32.8425,33.085,28.41,3.1365536421365405
1 -> 2,3.7180890000000018,3.718088999999998,3.718089,3.718089,3.7180890000000018,1.6764000044290905e-15,74.25,74.25,74.25,74.25,74.25,0.0,34.63000000000002,34.62999999999999,34.63,34.63000000000001,34.63000000000002,1.2809491335957507e-14,24.85,13.53,19.212500000000002,19.235,13.53,4.220641983158487
1 -> 2,3.7180890000000018,3.718088999999998,3.718089,3.718089,3.7180890000000018,1.6764000044290905e-15,74.25,74.25,74.25,74.25,74.25,0.0,34.63000000000002,34.62999999999999,34.63,34.63000000000001,34.63000000000002,1.2809491335957507e-14,24.85,13.53,19.212500000000002,19.235,13.53,4.220641983158487
1 -> 2,3.7180890000000018,3.718088999999998,3.718089,3.718089,3.7180890000000018,1.6764000044290905e-15,74.25,74.25,74.25,74.25,74.25,0.0,34.63000000000002,34.62999999999999,34.63,34.63000000000001,34.63000000000002,1.2809491335957507e-14,9.7,-1.91,3.9099999999999993,3.9250000000000003,-1.91,4.326817537174406
1 -> 2,3.7180890000000018,3.718088999999998,3.718089,3.718089,3.7180890000000018,1.6764000044290905e-15,74.25,74.25,74.25,74.25,74.25,0.0,34.63000000000002,34.62999999999999,34.63,34.63000000000001,34.63000000000002,1.2809491335957507e-14,9.7,-1.91,3.9099999999999993,3.9250000000000003,-1.91,4.326817537174406
1 -> 2,3.7180890000000018,3.718088999999998,3.718089,3.718089,3.7180890000000018,1.6764000044290905e-15,74.25,74.25,74.25,74.25,74.25,0.0,34.63000000000002,34.62999999999999,34.63,34.63000000000001,34.63000000000002,1.2809491335957507e-14,-5.87,-19.08,-12.2975,-12.12,-19.08,4.919244733696423
1 -> 2,3.7180890000000018,3.718088999999998,3.718089,3.718089,3.7180890000000018,1.6764000044290905e-15,74.25,74.25,74.25,74.25,74.25,0.0,34.63000000000002,34.62999999999999,34.63,34.63000000000001,34.63000000000002,1.2809491335957507e-14,-5.87,-19.08,-12.2975,-12.12,-19.08,4.919244733696423
1 -> 2,3.7180890000000018,3.718088999999998,3.718089,3.718089,3.7180890000000018,1.6764000044290905e-15,74.25,74.25,74.25,74.25,74.25,0.0,34.63000000000002,34.62999999999999,34.63,34.63000000000001,34.63000000000002,1.2809491335957507e-14,-24.41,-39.52,-32.377500000000005,-32.79,-39.52,5.6880724986589275
1 -> 2,3.7180890000000018,3.718088999999998,3.718089,3.718089,3.7180890000000018,1.6764000044290905e-15,74.25,74.25,74.25,74.25,74.25,0.0,34.63000000000002,34.62999999999999,34.63,34.63000000000001,34.63000000000002,1.2809491335957507e-14,-24.41,-39.52,-32.377500000000005,-32.79,-39.52,5.6880724986589275
1 -> 2,3.7475370000000017,3.7475369999999972,3.7475369999999995,3.7475370000000003,3.7475370000000017,1.9735756178897087e-15,74.25,74.25,74.25,74.25,74.25,0.0,34.63000000000002,34.62999999999999,34.63,34.63000000000001,34.63000000000002,1.2809491335957507e-14,-22.81,-40.92,-33.7275,-35.59,-40.92,7.019289048757004
1 -> 2,3.7475370000000017,3.7475369999999972,3.7475369999999995,3.7475370000000003,3.7475370000000017,1.9735756178897087e-15,74.25,74.25,74.25,74.25,74.25,0.0,34.63000000000002,34.62999999999999,34.63,34.63000000000001,34.63000000000002,1.2809491335957507e-14,-22.81,-40.92,-33.7275,-35.59,-40.92,7.019289048757004
1 -> 2,3.7475370000000017,3.7475369999999972,3.7475369999999995,3.7475370000000003,3.7475370000000017,1.9735756178897087e-15,74.25,74.25,74.25,74.25,74.25,0.0,34.63000000000002,34.62999999999999,34.63,34.63000000000001,34.63000000000002,1.2809491335957507e-14,24.87,-10.83,7.545,8.07,-10.83,13.351139464480177
1 -> 2,3.7475370000000017,3.7475369999999972,3.7475369999999995,3.7475370000000003,3.7475370000000017,1.9735756178897087e-15,74.25,74.25,74.25,74.25,74.25,0.0,34.63000000000002,34.62999999999999,34.63,34.63000000000001,34.63000000000002,1.2809491335957507e-14,24.87,-10.83,7.545,8.07,-10.83,13.351139464480177
1 -> 2,3.7475370000000017,3.7475369999999972,3.7475369999999995,3.7475370000000003,3.7475370000000017,1.9735756178897087e-15,74.25,74.25,74.25,74.25,74.25,0.0,34.63000000000002,34.62999999999999,34.63,34.63000000000001,34.63000000000002,1.2809491335957507e-14,47.52,33.54,41.46,42.39,33.54,5.28365403863652
1 -> 2,3.7475370000000017,3.7475369999999972,3.7475369999999995,3.7475370000000003,3.7475370000000017,1.9735756178897087e-15,74.25,74.25,74.25,74.25,74.25,0.0,34.63000000000002,34.62999999999999,34.63,34.63000000000001,34.63000000000002,1.2809491335957507e-14,47.52,33.54,41.46,42.39,33.54,5.28365403863652
1 -> 2,3.7475370000000017,3.7475369999999972,3.7475369999999995,3.7475370000000003,3.7475370000000017,1.9735756178897087e-15,74.25,74.25,74.25,74.25,74.25,0.0,34.63000000000002,34.62999999999999,34.63,34.63000000000001,34.63000000000002,1.2809491335957507e-14,49.03,46.54,48.1575,48.53,46.54,0.9892263391155744
1 -> 2,3.7475370000000017,3.7475369999999972,3.7475369999999995,3.7475370000000003,3.7475370000000017,1.9735756178897087e-15,74.25,74.25,74.25,74.25,74.25,0.0,34.63000000000002,34.62999999999999,34.63,34.63000000000001,34.63000000000002,1.2809491335957507e-14,49.03,46.54,48.1575,48.53,46.54,0.9892263391155744
1 -> 2,3.765461000000002,3.765460999999998,3.7654610000000006,3.765461000000001,3.765461000000002,1.6467268631127714e-15,74.25,74.25,74.25,74.25,74.25,0.0,34.63000000000002,34.62999999999999,34.63,34.63000000000001,34.63000000000002,1.2809491335957507e-14,44.39,37.64,40.942499999999995,40.870000000000005,37.64,2.5245531782871993
1 -> 2,3.765461000000002,3.765460999999998,3.7654610000000006,3.765461000000001,3.765461000000002,1.6467268631127714e-15,74.25,74.25,74.25,74.25,74.25,0.0,34.63000000000002,34.62999999999999,34.63,34.63000000000001,34.63000000000002,1.2809491335957507e-14,44.39,37.64,40.942499999999995,40.870000000000005,37.64,2.5245531782871993
1 -> 2,3.765461000000002,3.765460999999998,3.7654610000000006,3.765461000000001,3.765461000000002,1.6467268631127714e-15,74.25,74.25,74.25,74.25,74.25,0.0,34.63000000000002,34.62999999999999,34.63,34.63000000000001,34.63000000000002,1.2809491335957507e-14,35.89,31.59,33.72,33.7,31.59,1.596778005860552
1 -> 2,3.765461000000002,3.765460999999998,3.7654610000000006,3.765461000000001,3.765461000000002,1.6467268631127714e-15,74.25,74.25,74.25,74.25,74.25,0.0,34.63000000000002,34.62999999999999,34.63,34.63000000000001,34.63000000000002,1.2809491335957507e-14,35.89,31.59,33.72,33.7,31.59,1.596778005860552
1 -> 2,3.765461000000002,3.765460999999998,3.7654610000000006,3.765461000000001,3.765461000000002,1.6467268631127714e-15,74.25,74.25,74.25,74.25,74.25,0.0,34.63000000000002,34.62999999999999,34.63,34.63000000000001,34.63000000000002,1.2809491335957507e-14,30.05,24.63,27.4025,27.465,24.63,2.0212542516962095
1 -> 2,3.765461000000002,3.765460999999998,3.7654610000000006,3.765461000000001,3.765461000000002,1.6467268631127714e-15,74.25,74.25,74.25,74.25,74.25,0.0,34.63000000000002,34.62999999999999,34.63,34.63000000000001,34.63000000000002,1.2809491335957507e-14,30.05,24.63,27.4025,27.465,24.63,2.0212542516962095
1 -> 2,3.765461000000002,3.765460999999998,3.7654610000000006,3.765461000000001,3.765461000000002,1.6467268631127714e-15,74.25,74.25,74.25,74.25,74.25,0.0,34.63000000000002,34.62999999999999,34.63,34.63000000000001,34.63000000000002,1.2809491335957507e-14,22.57,15.68,19.175,19.225,15.68,2.569732476348462
1 -> 2,3.765461000000002,3.765460999999998,3.7654610000000006,3.765461000000001,3.765461000000002,1.6467268631127714e-15,74.25,74.25,74.25,74.25,74.25,0.0,34.63000000000002,34.62999999999999,34.63,34.63000000000001,34.63000000000002,1.2809491335957507e-14,22.57,15.68,19.175,19.225,15.68,2.569732476348462
1 -> 2,3.7705830000000016,3.770582999999997,3.770583,3.7705830000000002,3.7705830000000016,1.88411095042053e-15,77.0,77.0,77.0,77.0,77.0,0.0,34.63000000000002,34.62999999999999,34.63,34.63000000000001,34.63000000000002,1.2809491335957507e-14,13.2,4.76,9.105,9.23,4.76,3.144181133459076
1 -> 2,3.7705830000000016,3.770582999999997,3.770583,3.7705830000000002,3.7705830000000016,1.88411095042053e-15,77.0,77.0,77.0,77.0,77.0,0.0,34.63000000000002,34.62999999999999,34.63,34.63000000000001,34.63000000000002,1.2809491335957507e-14,13.2,4.76,9.105,9.23,4.76,3.144181133459076
1 -> 2,3.7705830000000016,3.770582999999997,3.770583,3.7705830000000002,3.7705830000000016,1.88411095042053e-15,77.0,77.0,77.0,77.0,77.0,0.0,34.63000000000002,34.62999999999999,34.63,34.63000000000001,34.63000000000002,1.2809491335957507e-14,1.33,-10.15,-4.385,-4.359999999999999,-10.15,4.286685782746386
1 -> 2,3.7705830000000016,3.770582999999997,3.770583,3.7705830000000002,3.7705830000000016,1.88411095042053e-15,77.0,77.0,77.0,77.0,77.0,0.0,34.63000000000002,34.62999999999999,34.63,34.63000000000001,34.63000000000002,1.2809491335957507e-14,1.33,-10.15,-4.385,-4.359999999999999,-10.15,4.286685782746386
1 -> 2,3.7705830000000016,3.770582999999997,3.770583,3.7705830000000002,3.7705830000000016,1.88411095042053e-15,77.0,77.0,77.0,77.0,77.0,0.0,34.63000000000002,34.62999999999999,34.63,34.63000000000001,34.63000000000002,1.2809491335957507e-14,-13.73,-22.52,-18.2525,-18.380000000000003,-22.52,3.2727769172371035
1 -> 2,3.7705830000000016,3.770582999999997,3.770583,3.7705830000000002,3.7705830000000016,1.88411095042053e-15,77.0,77.0,77.0,77.0,77.0,0.0,34.63000000000002,34.62999999999999,34.63,34.63000000000001,34.63000000000002,1.2809491335957507e-14,-13.73,-22.52,-18.2525,-18.380000000000003,-22.52,3.2727769172371035
1 -> 2,3.7705830000000016,3.770582999999997,3.770583,3.7705830000000002,3.7705830000000016,1.88411095042053e-15,77.0,77.0,77.0,77.0,77.0,0.0,34.63000000000002,34.62999999999999,34.63,34.63000000000001,34.63000000000002,1.2809491335957507e-14,-25.37,-37.02,-30.910000000000004,-30.625,-37.02,4.3562770802601625
1 -> 2,3.7705830000000016,3.770582999999997,3.770583,3.7705830000000002,3.7705830000000016,1.88411095042053e-15,77.0,77.0,77.0,77.0,77.0,0.0,34.63000000000002,34.62999999999999,34.63,34.63000000000001,34.63000000000002,1.2809491335957507e-14,-25.37,-37.02,-30.910000000000004,-30.625,-37.02,4.3562770802601625
1 -> 2,3.7590600000000016,3.759059999999997,3.7590600000000003,3.7590600000000007,3.7590600000000016,1.831026719408895e-15,77.0,77.0,77.0,77.0,77.0,0.0,34.63000000000002,34.62999999999999,34.63,34.63000000000001,34.63000000000002,1.2809491335957507e-14,-41.4,-46.1,-44.177499999999995,-44.605000000000004,-46.1,1.7207901528077163
1 -> 2,3.7590600000000016,3.759059999999997,3.7590600000000003,3.7590600000000007,3.7590600000000016,1.831026719408895e-15,77.0,77.0,77.0,77.0,77.0,0.0,34.63000000000002,34.62999999999999,34.63,34.63000000000001,34.63000000000002,1.2809491335957507e-14,-41.4,-46.1,-44.177499999999995,-44.605000000000004,-46.1,1.7207901528077163
1 -> 2,3.7590600000000016,3.759059999999997,3.7590600000000003,3.7590600000000007,3.7590600000000016,1.831026719408895e-15,77.0,77.0,77.0,77.0,77.0,0.0,34.63000000000002,34.62999999999999,34.63,34.63000000000001,34.63000000000002,1.2809491335957507e-14,-9.8,-39.36,-25.337500000000002,-26.095,-39.36,11.08973032810086
1 -> 2,3.7590600000000016,3.759059999999997,3.7590600000000003,3.7590600000000007,3.7590600000000016,1.831026719408895e-15,77.0,77.0,77.0,77.0,77.0,0.0,34.63000000000002,34.62999999999999,34.63,34.63000000000001,34.63000000000002,1.2809491335957507e-14,-9.8,-39.36,-25.337500000000002,-26.095,-39.36,11.08973032810086
1 -> 2,3.7590600000000016,3.759059999999997,3.7590600000000003,3.7590600000000007,3.7590600000000016,1.831026719408895e-15,77.0,77.0,77.0,77.0,77.0,0.0,34.63000000000002,34.62999999999999,34.63,34.63000000000001,34.63000000000002,1.2809491335957507e-14,24.52,1.01,13.629999999999999,14.495000000000001,1.01,8.80797082193169
1 -> 2,3.7590600000000016,3.759059999999997,3.7590600000000003,3.7590600000000007,3.7590600000000016,1.831026719408895e-15,77.0,77.0,77.0,77.0,77.0,0.0,34.63000000000002,34.62999999999999,34.63,34.63000000000001,34.63000000000002,1.2809491335957507e-14,24.52,1.01,13.629999999999999,14.495000000000001,1.01,8.80797082193169
1 -> 2,3.7590600000000016,3.759059999999997,3.7590600000000003,3.7590600000000007,3.7590600000000016,1.831026719408895e-15,77.0,77.0,77.0,77.0,77.0,0.0,34.63000000000002,34.62999999999999,34.63,34.63000000000001,34.63000000000002,1.2809491335957507e-14,34.34,29.0,32.2825,32.894999999999996,29.0,2.0769493855171346
1 -> 2,3.7590600000000016,3.759059999999997,3.7590600000000003,3.7590600000000007,3.7590600000000016,1.831026719408895e-15,77.0,77.0,77.0,77.0,77.0,0.0,34.63000000000002,34.62999999999999,34.63,34.63000000000001,34.63000000000002,1.2809491335957507e-14,34.34,29.0,32.2825,32.894999999999996,29.0,2.0769493855171346
1 -> 2,3.7244910000000018,3.724490999999999,3.7244910000000004,3.7244910000000004,3.7244910000000018,1.2362920382602608e-15,77.0,77.0,77.0,77.0,77.0,0.0,34.63000000000002,34.62999999999999,34.63,34.63000000000001,34.63000000000002,1.2809491335957507e-14,33.96,30.27,32.18,32.245000000000005,30.27,1.3907012619538395
1 -> 2,3.7244910000000018,3.724490999999999,3.7244910000000004,3.7244910000000004,3.7244910000000018,1.2362920382602608e-15,77.0,77.0,77.0,77.0,77.0,0.0,34.63000000000002,34.62999999999999,34.63,34.63000000000001,34.63000000000002,1.2809491335957507e-14,33.96,30.27,32.18,32.245000000000005,30.27,1.3907012619538395
1 -> 2,3.7244910000000018,3.724490999999999,3.7244910000000004,3.7244910000000004,3.7244910000000018,1.2362920382602608e-15,77.0,77.0,77.0,77.0,77.0,0.0,34.63000000000002,34.62999999999999,34.63,34.63000000000001,34.63000000000002,1.2809491335957507e-14,29.23,27.44,28.2875,28.240000000000002,27.44,0.6627358070905781
1 -> 2,3.7244910000000018,3.724490999999999,3.7244910000000004,3.7244910000000004,3.7244910000000018,1.2362920382602608e-15,77.0,77.0,77.0,77.0,77.0,0.0,34.63000000000002,34.62999999999999,34.63,34.63000000000001,34.63000000000002,1.2809491335957507e-14,29.23,27.44,28.2875,28.240000000000002,27.44,0.6627358070905781
1 -> 2,3.7244910000000018,3.724490999999999,3.7244910000000004,3.7244910000000004,3.7244910000000018,1.2362920382602608e-15,77.0,77.0,77.0,77.0,77.0,0.0,34.63000000000002,34.62999999999999,34.63,34.63000000000001,34.63000000000002,1.2809491335957507e-14,26.75,23.39,25.165,25.259999999999998,23.39,1.2580441168734897
1 -> 2,3.7244910000000018,3.724490999999999,3.7244910000000004,3.7244910000000004,3.7244910000000018,1.2362920382602608e-15,77.0,77.0,77.0,77.0,77.0,0.0,34.63000000000002,34.62999999999999,34.63,34.63000000000001,34.63000000000002,1.2809491335957507e-14,26.75,23.39,25.165,25.259999999999998,23.39,1.2580441168734897
1 -> 2,3.7244910000000018,3.724490999999999,3.7244910000000004,3.7244910000000004,3.7244910000000018,1.2362920382602608e-15,77.0,77.0,77.0,77.0,77.0,0.0,34.63000000000002,34.62999999999999,34.63,34.63000000000001,34.63000000000002,1.2809491335957507e-14,22.0,17.07,19.627499999999998,19.72,17.07,1.8348484269824574
1 -> 2,3.7244910000000018,3.724490999999999,3.7244910000000004,3.7244910000000004,3.7244910000000018,1.2362920382602608e-15,77.0,77.0,77.0,77.0,77.0,0.0,34.63000000000002,34.62999999999999,34.63,34.63000000000001,34.63000000000002,1.2809491335957507e-14,22.0,17.07,19.627499999999998,19.72,17.07,1.8348484269824574
1 -> 2,3.688642000000002,3.6886419999999993,3.6886420000000006,3.6886420000000006,3.6886419999999993,1.3322676295501878e-15,77.0,77.0,77.0,77.0,77.0,0.0,34.63000000000002,34.62999999999999,34.63,34.63000000000001,34.63000000000002,1.2809491335957507e-14,14.82,4.15,9.8375,10.190000000000001,4.15,3.9924389475607516
1 -> 2,3.688642000000002,3.6886419999999993,3.6886420000000006,3.6886420000000006,3.6886419999999993,1.3322676295501878e-15,77.0,77.0,77.0,77.0,77.0,0.0,34.63000000000002,34.62999999999999,34.63,34.63000000000001,34.63000000000002,1.2809491335957507e-14,14.82,4.15,9.8375,10.190000000000001,4.15,3.9924389475607516
1 -> 2,3.688642000000002,3.6886419999999993,3.6886420000000006,3.6886420000000006,3.6886419999999993,1.3322676295501878e-15,77.0,77.0,77.0,77.0,77.0,0.0,34.63000000000002,34.62999999999999,34.63,34.63000000000001,34.63000000000002,1.2809491335957507e-14,-0.62,-14.46,-7.7225,-7.904999999999999,-14.46,5.171993691991513
1 -> 2,3.688642000000002,3.6886419999999993,3.6886420000000006,3.6886420000000006,3.6886419999999993,1.3322676295501878e-15,77.0,77.0,77.0,77.0,77.0,0.0,34.63000000000002,34.62999999999999,34.63,34.63000000000001,34.63000000000002,1.2809491335957507e-14,-0.62,-14.46,-7.7225,-7.904999999999999,-14.46,5.171993691991513
1 -> 2,3.688642000000002,3.6886419999999993,3.6886420000000006,3.6886420000000006,3.6886419999999993,1.3322676295501878e-15,77.0,77.0,77.0,77.0,77.0,0.0,34.63000000000002,34.62999999999999,34.63,34.63000000000001,34.63000000000002,1.2809491335957507e-14,-18.06,-27.18,-22.6275,-22.635,-27.18,3.3867342307893016
1 -> 2,3.688642000000002,3.6886419999999993,3.6886420000000006,3.6886420000000006,3.6886419999999993,1.3322676295501878e-15,77.0,77.0,77.0,77.0,77.0,0.0,34.63000000000002,34.62999999999999,34.63,34.63000000000001,34.63000000000002,1.2809491335957507e-14,-18.06,-27.18,-22.6275,-22.635,-27.18,3.3867342307893016
1 -> 2,3.688642000000002,3.6886419999999993,3.6886420000000006,3.6886420000000006,3.6886419999999993,1.3322676295501878e-15,77.0,77.0,77.0,77.0,77.0,0.0,34.63000000000002,34.62999999999999,34.63,34.63000000000001,34.63000000000002,1.2809491335957507e-14,-30.73,-44.32,-37.3875,-37.25,-44.32,5.083573423291928
1 -> 2,3.688642000000002,3.6886419999999993,3.6886420000000006,3.6886420000000006,3.6886419999999993,1.3322676295501878e-15,77.0,77.0,77.0,77.0,77.0,0.0,34.63000000000002,34.62999999999999,34.63,34.63000000000001,34.63000000000002,1.2809491335957507e-14,-30.73,-44.32,-37.3875,-37.25,-44.32,5.083573423291928
1 -> 2,3.6566330000000016,3.6566329999999994,3.6566330000000002,3.6566330000000002,3.6566329999999994,1.1322097734007351e-15,77.33,77.33,77.33,77.33,77.33,0.0,34.610000000000014,34.60999999999997,34.61,34.61,34.610000000000014,1.7763568394002505e-14,-45.72,-50.41,-48.535000000000004,-49.005,-50.41,1.8001458274262114
1 -> 2,3.6566330000000016,3.6566329999999994,3.6566330000000002,3.6566330000000002,3.6566329999999994,1.1322097734007351e-15,77.33,77.33,77.33,77.33,77.33,0.0,34.610000000000014,34.60999999999997,34.61,34.61,34.610000000000014,1.7763568394002505e-14,-45.72,-50.41,-48.535000000000004,-49.005,-50.41,1.8001458274262114
1 -> 2,3.6566330000000016,3.6566329999999994,3.6566330000000002,3.6566330000000002,3.6566329999999994,1.1322097734007351e-15,77.33,77.33,77.33,77.33,77.33,0.0,34.610000000000014,34.60999999999997,34.61,34.61,34.610000000000014,1.7763568394002505e-14,-6.8,-38.43,-22.897499999999997,-23.18,-38.43,11.84090236215129
1 -> 2,3.6566330000000016,3.6566329999999994,3.6566330000000002,3.6566330000000002,3.6566329999999994,1.1322097734007351e-15,77.33,77.33,77.33,77.33,77.33,0.0,34.610000000000014,34.60999999999997,34.61,34.61,34.610000000000014,1.7763568394002505e-14,-6.8,-38.43,-22.897499999999997,-23.18,-38.43,11.84090236215129
1 -> 2,3.6566330000000016,3.6566329999999994,3.6566330000000002,3.6566330000000002,3.6566329999999994,1.1322097734007351e-15,77.33,77.33,77.33,77.33,77.33,0.0,34.610000000000014,34.60999999999997,34.61,34.61,34.610000000000014,1.7763568394002505e-14,22.95,3.0,13.7375,14.5,3.0,7.466174974510039
1 -> 2,3.6566330000000016,3.6566329999999994,3.6566330000000002,3.6566330000000002,3.6566329999999994,1.1322097734007351e-15,77.33,77.33,77.33,77.33,77.33,0.0,34.610000000000014,34.60999999999997,34.61,34.61,34.610000000000014,1.7763568394002505e-14,22.95,3.0,13.7375,14.5,3.0,7.466174974510039
1 -> 2,3.6566330000000016,3.6566329999999994,3.6566330000000002,3.6566330000000002,3.6566329999999994,1.1322097734007351e-15,77.33,77.33,77.33,77.33,77.33,0.0,34.610000000000014,34.60999999999997,34.61,34.61,34.610000000000014,1.7763568394002505e-14,33.06,26.92,30.425,30.86,26.92,2.3241503823978342
1 -> 2,3.6566330000000016,3.6566329999999994,3.6566330000000002,3.6566330000000002,3.6566329999999994,1.1322097734007351e-15,77.33,77.33,77.33,77.33,77.33,0.0,34.610000000000014,34.60999999999997,34.61,34.61,34.610000000000014,1.7763568394002505e-14,33.06,26.92,30.425,30.86,26.92,2.3241503823978342
1 -> 2,3.631027000000002,3.631026999999997,3.6310269999999996,3.6310270000000004,3.631027000000002,2.1065000811460206e-15,77.33,77.33,77.33,77.33,77.33,0.0,34.610000000000014,34.60999999999997,34.61,34.61,34.610000000000014,1.7763568394002505e-14,34.92,33.69,34.2625,34.22,33.69,0.4551030103174458
1 -> 2,3.631027000000002,3.631026999999997,3.6310269999999996,3.6310270000000004,3.631027000000002,2.1065000811460206e-15,77.33,77.33,77.33,77.33,77.33,0.0,34.610000000000014,34.60999999999997,34.61,34.61,34.610000000000014,1.7763568394002505e-14,34.92,33.69,34.2625,34.22,33.69,0.4551030103174458
1 -> 2,3.631027000000002,3.631026999999997,3.6310269999999996,3.6310270000000004,3.631027000000002,2.1065000811460206e-15,77.33,77.33,77.33,77.33,77.33,0.0,34.610000000000014,34.60999999999997,34.61,34.61,34.610000000000014,1.7763568394002505e-14,36.91,35.57,36.3525,36.465,35.57,0.5168353219353329
1 -> 2,3.631027000000002,3.631026999999997,3.6310269999999996,3.6310270000000004,3.631027000000002,2.1065000811460206e-15,77.33,77.33,77.33,77.33,77.33,0.0,34.610000000000014,34.60999999999997,34.61,34.61,34.610000000000014,1.7763568394002505e-14,36.91,35.57,36.3525,36.465,35.57,0.5168353219353329
1 -> 2,3.631027000000002,3.631026999999997,3.6310269999999996,3.6310270000000004,3.631027000000002,2.1065000811460206e-15,77.33,77.33,77.33,77.33,77.33,0.0,34.610000000000014,34.60999999999997,34.61,34.61,34.610000000000014,1.7763568394002505e-14,36.77,34.88,35.917500000000004,36.010000000000005,34.88,0.7138058209345176
1 -> 2,3.631027000000002,3.631026999999997,3.6310269999999996,3.6310270000000004,3.631027000000002,2.1065000811460206e-15,77.33,77.33,77.33,77.33,77.33,0.0,34.610000000000014,34.60999999999997,34.61,34.61,34.610000000000014,1.7763568394002505e-14,36.77,34.88,35.917500000000004,36.010000000000005,34.88,0.7138058209345176
1 -> 2,3.631027000000002,3.631026999999997,3.6310269999999996,3.6310270000000004,3.631027000000002,2.1065000811460206e-15,77.33,77.33,77.33,77.33,77.33,0.0,34.610000000000014,34.60999999999997,34.61,34.61,34.610000000000014,1.7763568394002505e-14,34.01,30.74,32.4625,32.55,30.74,1.2163341440574624
1 -> 2,3.631027000000002,3.631026999999997,3.6310269999999996,3.6310270000000004,3.631027000000002,2.1065000811460206e-15,77.33,77.33,77.33,77.33,77.33,0.0,34.610000000000014,34.60999999999997,34.61,34.61,34.610000000000014,1.7763568394002505e-14,34.01,30.74,32.4625,32.55,30.74,1.2163341440574624
1 -> 2,3.605420000000002,3.605419999999998,3.60542,3.6054200000000005,3.605420000000002,1.7342238036525468e-15,77.33,77.33,77.33,77.33,77.33,0.0,34.610000000000014,34.60999999999997,34.61,34.61,34.610000000000014,1.7763568394002505e-14,29.02,20.64,25.0725,25.314999999999998,20.64,3.138816456883071
1 -> 2,3.605420000000002,3.605419999999998,3.60542,3.6054200000000005,3.605420000000002,1.7342238036525468e-15,77.33,77.33,77.33,77.33,77.33,0.0,34.610000000000014,34.60999999999997,34.61,34.61,34.610000000000014,1.7763568394002505e-14,29.02,20.64,25.0725,25.314999999999998,20.64,3.138816456883071
1 -> 2,3.605420000000002,3.605419999999998,3.60542,3.6054200000000005,3.605420000000002,1.7342238036525468e-15,77.33,77.33,77.33,77.33,77.33,0.0,34.610000000000014,34.60999999999997,34.61,34.61,34.610000000000014,1.7763568394002505e-14,17.32,9.42,13.1675,12.965,9.42,2.9485197557418537
1 -> 2,3.605420000000002,3.605419999999998,3.60542,3.6054200000000005,3.605420000000002,1.7342238036525468e-15,77.33,77.33,77.33,77.33,77.33,0.0,34.610000000000014,34.60999999999997,34.61,34.61,34.610000000000014,1.7763568394002505e-14,17.32,9.42,13.1675,12.965,9.42,2.9485197557418537
1 -> 2,3.605420000000002,3.605419999999998,3.60542,3.6054200000000005,3.605420000000002,1.7342238036525468e-15,77.33,77.33,77.33,77.33,77.33,0.0,34.610000000000014,34.60999999999997,34.61,34.61,34.610000000000014,1.7763568394002505e-14,7.26,-1.66,3.06,3.32,-1.66,3.3351836531141728
1 -> 2,3.605420000000002,3.605419999999998,3.60542,3.6054200000000005,3.605420000000002,1.7342238036525468e-15,77.33,77.33,77.33,77.33,77.33,0.0,34.610000000000014,34.60999999999997,34.61,34.61,34.610000000000014,1.7763568394002505e-14,7.26,-1.66,3.06,3.32,-1.66,3.3351836531141728
1 -> 2,3.605420000000002,3.605419999999998,3.60542,3.6054200000000005,3.605420000000002,1.7342238036525468e-15,77.33,77.33,77.33,77.33,77.33,0.0,34.610000000000014,34.60999999999997,34.61,34.61,34.610000000000014,1.7763568394002505e-14,-5.39,-14.86,-10.35,-10.575,-14.86,3.5379160532720393
1 -> 2,3.605420000000002,3.605419999999998,3.60542,3.6054200000000005,3.605420000000002,1.7342238036525468e-15,77.33,77.33,77.33,77.33,77.33,0.0,34.610000000000014,34.60999999999997,34.61,34.61,34.610000000000014,1.7763568394002505e-14,-5.39,-14.86,-10.35,-10.575,-14.86,3.5379160532720393
1 -> 2,3.590056000000002,3.5900559999999992,3.5900560000000006,3.5900560000000006,3.590056000000002,1.2362920382602608e-15,77.33,77.33,77.33,77.33,77.33,0.0,34.610000000000014,34.60999999999997,34.61,34.61,34.610000000000014,1.7763568394002505e-14,-17.27,-25.84,-21.3275,-21.1,-25.84,3.1934963206492033
1 -> 2,3.590056000000002,3.5900559999999992,3.5900560000000006,3.5900560000000006,3.590056000000002,1.2362920382602608e-15,77.33,77.33,77.33,77.33,77.33,0.0,34.610000000000014,34.60999999999997,34.61,34.61,34.610000000000014,1.7763568394002505e-14,-17.27,-25.84,-21.3275,-21.1,-25.84,3.1934963206492033
1 -> 2,3.590056000000002,3.5900559999999992,3.5900560000000006,3.5900560000000006,3.590056000000002,1.2362920382602608e-15,77.33,77.33,77.33,77.33,77.33,0.0,34.610000000000014,34.60999999999997,34.61,34.61,34.610000000000014,1.7763568394002505e-14,-29.88,-45.76,-37.595,-37.37,-45.76,5.936705736349074
1 -> 2,3.590056000000002,3.5900559999999992,3.5900560000000006,3.5900560000000006,3.590056000000002,1.2362920382602608e-15,77.33,77.33,77.33,77.33,77.33,0.0,34.610000000000014,34.60999999999997,34.61,34.61,34.610000000000014,1.7763568394002505e-14,-29.88,-45.76,-37.595,-37.37,-45.76,5.936705736349074
1 -> 2,3.590056000000002,3.5900559999999992,3.5900560000000006,3.5900560000000006,3.590056000000002,1.2362920382602608e-15,77.33,77.33,77.33,77.33,77.33,0.0,34.610000000000014,34.60999999999997,34.61,34.61,34.610000000000014,1.7763568394002505e-14,-50.95,-55.44,-53.4325,-53.67,-55.44,1.7240849022017435
1 -> 2,3.590056000000002,3.5900559999999992,3.5900560000000006,3.5900560000000006,3.590056000000002,1.2362920382602608e-15,77.33,77.33,77.33,77.33,77.33,0.0,34.610000000000014,34.60999999999997,34.61,34.61,34.610000000000014,1.7763568394002505e-14,-50.95,-55.44,-53.4325,-53.67,-55.44,1.7240849022017435
1 -> 2,3.590056000000002,3.5900559999999992,3.5900560000000006,3.5900560000000006,3.590056000000002,1.2362920382602608e-15,77.33,77.33,77.33,77.33,77.33,0.0,34.610000000000014,34.60999999999997,34.61,34.61,34.610000000000014,1.7763568394002505e-14,-14.42,-46.44,-30.967499999999998,-31.505,-46.44,11.999552856252603
1 -> 2,3.590056000000002,3.5900559999999992,3.5900560000000006,3.5900560000000006,3.590056000000002,1.2362920382602608e-15,77.33,77.33,77.33,77.33,77.33,0.0,34.610000000000014,34.60999999999997,34.61,34.61,34.610000000000014,1.7763568394002505e-14,-14.42,-46.44,-30.967499999999998,-31.505,-46.44,11.999552856252603
1 -> 2,3.5759730000000016,3.5759729999999985,3.5759730000000007,3.5759730000000016,3.5759730000000016,1.3506446028928519e-15,77.43,77.43,77.43,77.43,77.43,0.0,34.63000000000002,34.62999999999999,34.63,34.63000000000001,34.63000000000002,1.2809491335957507e-14,19.89,-3.69,8.825,9.55,-3.69,8.813156358535801
1 -> 2,3.5759730000000016,3.5759729999999985,3.5759730000000007,3.5759730000000016,3.5759730000000016,1.3506446028928519e-15,77.43,77.43,77.43,77.43,77.43,0.0,34.63000000000002,34.62999999999999,34.63,34.63000000000001,34.63000000000002,1.2809491335957507e-14,19.89,-3.69,8.825,9.55,-3.69,8.813156358535801
1 -> 2,3.5759730000000016,3.5759729999999985,3.5759730000000007,3.5759730000000016,3.5759730000000016,1.3506446028928519e-15,77.43,77.43,77.43,77.43,77.43,0.0,34.63000000000002,34.62999999999999,34.63,34.63000000000001,34.63000000000002,1.2809491335957507e-14,33.02,25.09,29.707500000000003,30.36,25.09,3.0261475096234167
1 -> 2,3.5759730000000016,3.5759729999999985,3.5759730000000007,3.5759730000000016,3.5759730000000016,1.3506446028928519e-15,77.43,77.43,77.43,77.43,77.43,0.0,34.63000000000002,34.62999999999999,34.63,34.63000000000001,34.63000000000002,1.2809491335957507e-14,33.02,25.09,29.707500000000003,30.36,25.09,3.0261475096234167
1 -> 2,3.5759730000000016,3.5759729999999985,3.5759730000000007,3.5759730000000016,3.5759730000000016,1.3506446028928519e-15,77.43,77.43,77.43,77.43,77.43,0.0,34.63000000000002,34.62999999999999,34.63,34.63000000000001,34.63000000000002,1.2809491335957507e-14,33.27,31.97,32.5975,32.575,31.97,0.5023631654490618
1 -> 2,3.5759730000000016,3.5759729999999985,3.5759730000000007,3.5759730000000016,3.5759730000000016,1.3506446028928519e-15,77.43,77.43,77.43,77.43,77.43,0.0,34.63000000000002,34.62999999999999,34.63,34.63000000000001,34.63000000000002,1.2809491335957507e-14,33.27,31.97,32.5975,32.575,31.97,0.5023631654490618
1 -> 2,3.5759730000000016,3.5759729999999985,3.5759730000000007,3.5759730000000016,3.5759730000000016,1.3506446028928519e-15,77.43,77.43,77.43,77.43,77.43,0.0,34.63000000000002,34.62999999999999,34.63,34.63000000000001,34.63000000000002,1.2809491335957507e-14,33.13,32.07,32.660000000000004,32.72,32.07,0.41291645644125247
1 -> 2,3.5759730000000016,3.5759729999999985,3.5759730000000007,3.5759730000000016,3.5759730000000016,1.3506446028928519e-15,77.43,77.43,77.43,77.43,77.43,0.0,34.63000000000002,34.62999999999999,34.63,34.63000000000001,34.63000000000002,1.2809491335957507e-14,33.13,32.07,32.660000000000004,32.72,32.07,0.41291645644125247
1 -> 2,3.5682910000000017,3.5682909999999977,3.5682910000000003,3.568291000000001,3.5682910000000017,1.631687946612622e-15,77.43,77.43,77.43,77.43,77.43,0.0,34.63000000000002,34.62999999999999,34.63,34.63000000000001,34.63000000000002,1.2809491335957507e-14,32.85,30.19,31.5825,31.645000000000003,30.19,1.002979934993717
1 -> 2,3.5682910000000017,3.5682909999999977,3.5682910000000003,3.568291000000001,3.5682910000000017,1.631687946612622e-15,77.43,77.43,77.43,77.43,77.43,0.0,34.63000000000002,34.62999999999999,34.63,34.63000000000001,34.63000000000002,1.2809491335957507e-14,32.85,30.19,31.5825,31.645000000000003,30.19,1.002979934993717
1 -> 2,3.5682910000000017,3.5682909999999977,3.5682910000000003,3.568291000000001,3.5682910000000017,1.631687946612622e-15,77.43,77.43,77.43,77.43,77.43,0.0,34.63000000000002,34.62999999999999,34.63,34.63000000000001,34.63000000000002,1.2809491335957507e-14,29.35,26.55,28.072499999999998,28.195,26.55,1.0417863264604699
1 -> 2,3.5682910000000017,3.5682909999999977,3.5682910000000003,3.568291000000001,3.5682910000000017,1.631687946612622e-15,77.43,77.43,77.43,77.43,77.43,0.0,34.63000000000002,34.62999999999999,34.63,34.63000000000001,34.63000000000002,1.2809491335957507e-14,29.35,26.55,28.072499999999998,28.195,26.55,1.0417863264604699
1 -> 2,3.5682910000000017,3.5682909999999977,3.5682910000000003,3.568291000000001,3.5682910000000017,1.631687946612622e-15,77.43,77.43,77.43,77.43,77.43,0.0,34.63000000000002,34.62999999999999,34.63,34.63000000000001,34.63000000000002,1.2809491335957507e-14,24.81,17.31,21.1675,21.275,17.31,2.80507018628768
1 -> 2,3.5682910000000017,3.5682909999999977,3.5682910000000003,3.568291000000001,3.5682910000000017,1.631687946612622e-15,77.43,77.43,77.43,77.43,77.43,0.0,34.63000000000002,34.62999999999999,34.63,34.63000000000001,34.63000000000002,1.2809491335957507e-14,24.81,17.31,21.1675,21.275,17.31,2.80507018628768
1 -> 2,3.5682910000000017,3.5682909999999977,3.5682910000000003,3.568291000000001,3.5682910000000017,1.631687946612622e-15,77.43,77.43,77.43,77.43,77.43,0.0,34.63000000000002,34.62999999999999,34.63,34.63000000000001,34.63000000000002,1.2809491335957507e-14,14.7,7.25,10.96,10.945,7.25,2.7750045045008482
1 -> 2,3.5682910000000017,3.5682909999999977,3.5682910000000003,3.568291000000001,3.5682910000000017,1.631687946612622e-15,77.43,77.43,77.43,77.43,77.43,0.0,34.63000000000002,34.62999999999999,34.63,34.63000000000001,34.63000000000002,1.2809491335957507e-14,14.7,7.25,10.96,10.945,7.25,2.7750045045008482
1 -> 2,3.5670100000000016,3.5670099999999993,3.5670100000000007,3.5670100000000007,3.5670099999999993,1.1322097734007351e-15,77.43,77.43,77.43,77.43,77.43,0.0,34.63000000000002,34.62999999999999,34.63,34.63000000000001,34.63000000000002,1.2809491335957507e-14,4.78,-2.46,1.1525,1.145,-2.46,2.6956017417266964
1 -> 2,3.5670100000000016,3.5670099999999993,3.5670100000000007,3.5670100000000007,3.5670099999999993,1.1322097734007351e-15,77.43,77.43,77.43,77.43,77.43,0.0,34.63000000000002,34.62999999999999,34.63,34.63000000000001,34.63000000000002,1.2809491335957507e-14,4.78,-2.46,1.1525,1.145,-2.46,2.6956017417266964
1 -> 2,3.5670100000000016,3.5670099999999993,3.5670100000000007,3.5670100000000007,3.5670099999999993,1.1322097734007351e-15,77.43,77.43,77.43,77.43,77.43,0.0,34.63000000000002,34.62999999999999,34.63,34.63000000000001,34.63000000000002,1.2809491335957507e-14,-5.01,-13.65,-9.272499999999999,-9.215,-13.65,3.226084120105984
1 -> 2,3.5670100000000016,3.5670099999999993,3.5670100000000007,3.5670100000000007,3.5670099999999993,1.1322097734007351e-15,77.43,77.43,77.43,77.43,77.43,0.0,34.63000000000002,34.62999999999999,34.63,34.63000000000001,34.63000000000002,1.2809491335957507e-14,-5.01,-13.65,-9.272499999999999,-9.215,-13.65,3.226084120105984
1 -> 2,3.5670100000000016,3.5670099999999993,3.5670100000000007,3.5670100000000007,3.5670099999999993,1.1322097734007351e-15,77.43,77.43,77.43,77.43,77.43,0.0,34.63000000000002,34.62999999999999,34.63,34.63000000000001,34.63000000000002,1.2809491335957507e-14,-16.49,-23.73,-20.185,-20.259999999999998,-23.73,2.6933297235949416
1 -> 2,3.5670100000000016,3.5670099999999993,3.5670100000000007,3.5670100000000007,3.5670099999999993,1.1322097734007351e-15,77.43,77.43,77.43,77.43,77.43,0.0,34.63000000000002,34.62999999999999,34.63,34.63000000000001,34.63000000000002,1.2809491335957507e-14,-16.49,-23.73,-20.185,-20.259999999999998,-23.73,2.6933297235949416
1 -> 2,3.5670100000000016,3.5670099999999993,3.5670100000000007,3.5670100000000007,3.5670099999999993,1.1322097734007351e-15,77.43,77.43,77.43,77.43,77.43,0.0,34.63000000000002,34.62999999999999,34.63,34.63000000000001,34.63000000000002,1.2809491335957507e-14,-26.2,-36.52,-31.067500000000003,-30.775,-36.52,3.856030180120484
1 -> 2,3.5670100000000016,3.5670099999999993,3.5670100000000007,3.5670100000000007,3.5670099999999993,1.1322097734007351e-15,77.43,77.43,77.43,77.43,77.43,0.0,34.63000000000002,34.62999999999999,34.63,34.63000000000001,34.63000000000002,1.2809491335957507e-14,-26.2,-36.52,-31.067500000000003,-30.775,-36.52,3.856030180120484
1 -> 2,3.570851000000002,3.5708509999999984,3.5708510000000007,3.5708510000000007,3.570851000000002,1.6011864169946884e-15,77.43,77.43,77.43,77.43,77.43,0.0,34.63000000000002,34.62999999999999,34.63,34.63000000000001,34.63000000000002,1.2809491335957507e-14,-41.05,-52.69,-47.3375,-47.805,-52.69,4.396404070373878
1 -> 2,3.570851000000002,3.5708509999999984,3.5708510000000007,3.5708510000000007,3.570851000000002,1.6011864169946884e-15,77.43,77.43,77.43,77.43,77.43,0.0,34.63000000000002,34.62999999999999,34.63,34.63000000000001,34.63000000000002,1.2809491335957507e-14,-41.05,-52.69,-47.3375,-47.805,-52.69,4.396404070373878
1 -> 2,3.570851000000002,3.5708509999999984,3.5708510000000007,3.5708510000000007,3.570851000000002,1.6011864169946884e-15,77.43,77.43,77.43,77.43,77.43,0.0,34.63000000000002,34.62999999999999,34.63,34.63000000000001,34.63000000000002,1.2809491335957507e-14,-36.35,-53.19,-46.2825,-47.795,-53.19,6.470600339226646
1 -> 2,3.570851000000002,3.5708509999999984,3.5708510000000007,3.5708510000000007,3.570851000000002,1.6011864169946884e-15,77.43,77.43,77.43,77.43,77.43,0.0,34.63000000000002,34.62999999999999,34.63,34.63000000000001,34.63000000000002,1.2809491335957507e-14,-36.35,-53.19,-46.2825,-47.795,-53.19,6.470600339226646
1 -> 2,3.570851000000002,3.5708509999999984,3.5708510000000007,3.5708510000000007,3.570851000000002,1.6011864169946884e-15,77.43,77.43,77.43,77.43,77.43,0.0,34.63000000000002,34.62999999999999,34.63,34.63000000000001,34.63000000000002,1.2809491335957507e-14,4.22,-25.94,-10.330000000000002,-9.8,-25.94,11.284881479218113
1 -> 2,3.570851000000002,3.5708509999999984,3.5708510000000007,3.5708510000000007,3.570851000000002,1.6011864169946884e-15,77.43,77.43,77.43,77.43,77.43,0.0,34.63000000000002,34.62999999999999,34.63,34.63000000000001,34.63000000000002,1.2809491335957507e-14,4.22,-25.94,-10.330000000000002,-9.8,-25.94,11.284881479218113
1 -> 2,3.570851000000002,3.5708509999999984,3.5708510000000007,3.5708510000000007,3.570851000000002,1.6011864169946884e-15,77.43,77.43,77.43,77.43,77.43,0.0,34.63000000000002,34.62999999999999,34.63,34.63000000000001,34.63000000000002,1.2809491335957507e-14,22.42,11.22,17.5125,18.205,11.22,4.219794870606864
1 -> 2,3.570851000000002,3.5708509999999984,3.5708510000000007,3.5708510000000007,3.570851000000002,1.6011864169946884e-15,77.43,77.43,77.43,77.43,77.43,0.0,34.63000000000002,34.62999999999999,34.63,34.63000000000001,34.63000000000002,1.2809491335957507e-14,22.42,11.22,17.5125,18.205,11.22,4.219794870606864
1 -> 2,3.5695710000000016,3.5695709999999994,3.5695710000000007,3.5695710000000007,3.5695710000000016,9.42055475210265e-16,77.5,77.5,77.5,77.5,77.5,0.0,34.63000000000002,34.62999999999999,34.63,34.63000000000001,34.63000000000002,1.2809491335957507e-14,24.72,23.87,24.415,24.534999999999997,23.87,0.3251538097577812
1 -> 2,3.5695710000000016,3.5695709999999994,3.5695710000000007,3.5695710000000007,3.5695710000000016,9.42055475210265e-16,77.5,77.5,77.5,77.5,77.5,0.0,34.63000000000002,34.62999999999999,34.63,34.63000000000001,34.63000000000002,1.2809491335957507e-14,24.72,23.87,24.415,24.534999999999997,23.87,0.3251538097577812
1 -> 2,3.5695710000000016,3.5695709999999994,3.5695710000000007,3.5695710000000007,3.5695710000000016,9.42055475210265e-16,77.5,77.5,77.5,77.5,77.5,0.0,34.63000000000002,34.62999999999999,34.63,34.63000000000001,34.63000000000002,1.2809491335957507e-14,24.14,23.85,23.985,23.975,23.85,0.12298373876248848
1 -> 2,3.5695710000000016,3.5695709999999994,3.5695710000000007,3.5695710000000007,3.5695710000000016,9.42055475210265e-16,77.5,77.5,77.5,77.5,77.5,0.0,34.63000000000002,34.62999999999999,34.63,34.63000000000001,34.63000000000002,1.2809491335957507e-14,24.14,23.85,23.985,23.975,23.85,0.12298373876248848
1 -> 2,3.5695710000000016,3.5695709999999994,3.5695710000000007,3.5695710000000007,3.5695710000000016,9.42055475210265e-16,77.5,77.5,77.5,77.5,77.5,0.0,34.63000000000002,34.62999999999999,34.63,34.63000000000001,34.63000000000002,1.2809491335957507e-14,24.78,24.44,24.610000000000003,24.61,24.44,0.15132745950421508
1 -> 2,3.5695710000000016,3.5695709999999994,3.5695710000000007,3.5695710000000007,3.5695710000000016,9.42055475210265e-16,77.5,77.5,77.5,77.5,77.5,0.0,34.63000000000002,34.62999999999999,34.63,34.63000000000001,34.63000000000002,1.2809491335957507e-14,24.78,24.44,24.610000000000003,24.61,24.44,0.15132745950421508
1 -> 2,3.5695710000000016,3.5695709999999994,3.5695710000000007,3.5695710000000007,3.5695710000000016,9.42055475210265e-16,77.5,77.5,77.5,77.5,77.5,0.0,34.63000000000002,34.62999999999999,34.63,34.63000000000001,34.63000000000002,1.2809491335957507e-14,23.9,21.82,22.845,22.83,21.82,0.7760637860382348
1 -> 2,3.5695710000000016,3.5695709999999994,3.5695710000000007,3.5695710000000007,3.5695710000000016,9.42055475210265e-16,77.5,77.5,77.5,77.5,77.5,0.0,34.63000000000002,34.62999999999999,34.63,34.63000000000001,34.63000000000002,1.2809491335957507e-14,23.9,21.82,22.845,22.83,21.82,0.7760637860382348
1 -> 2,3.5721320000000016,3.572131999999999,3.5721320000000008,3.5721320000000008,3.5721320000000016,1.2755491433176288e-15,77.5,77.5,77.5,77.5,77.5,0.0,34.63000000000002,34.62999999999999,34.63,34.63000000000001,34.63000000000002,1.2809491335957507e-14,21.07,15.76,18.7525,19.09,15.76,2.004212750682921
1 -> 2,3.5721320000000016,3.572131999999999,3.5721320000000008,3.5721320000000008,3.5721320000000016,1.2755491433176288e-15,77.5,77.5,77.5,77.5,77.5,0.0,34.63000000000002,34.62999999999999,34.63,34.63000000000001,34.63000000000002,1.2809491335957507e-14,21.07,15.76,18.7525,19.09,15.76,2.004212750682921
1 -> 2,3.5721320000000016,3.572131999999999,3.5721320000000008,3.5721320000000008,3.5721320000000016,1.2755491433176288e-15,77.5,77.5,77.5,77.5,77.5,0.0,34.63000000000002,34.62999999999999,34.63,34.63000000000001,34.63000000000002,1.2809491335957507e-14,12.71,3.47,7.9575,7.825,3.47,3.4562796110847285
1 -> 2,3.5721320000000016,3.572131999999999,3.5721320000000008,3.5721320000000008,3.5721320000000016,1.2755491433176288e-15,77.5,77.5,77.5,77.5,77.5,0.0,34.63000000000002,34.62999999999999,34.63,34.63000000000001,34.63000000000002,1.2809491335957507e-14,12.71,3.47,7.9575,7.825,3.47,3.4562796110847285
1 -> 2,3.5721320000000016,3.572131999999999,3.5721320000000008,3.5721320000000008,3.5721320000000016,1.2755491433176288e-15,77.5,77.5,77.5,77.5,77.5,0.0,34.63000000000002,34.62999999999999,34.63,34.63000000000001,34.63000000000002,1.2809491335957507e-14,1.12,-5.68,-2.1825,-2.085,-5.68,2.527650836250925
1 -> 2,3.5721320000000016,3.572131999999999,3.5721320000000008,3.5721320000000008,3.5721320000000016,1.2755491433176288e-15,77.5,77.5,77.5,77.5,77.5,0.0,34.63000000000002,34.62999999999999,34.63,34.63000000000001,34.63000000000002,1.2809491335957507e-14,1.12,-5.68,-2.1825,-2.085,-5.68,2.527650836250925
1 -> 2,3.5721320000000016,3.572131999999999,3.5721320000000008,3.5721320000000008,3.5721320000000016,1.2755491433176288e-15,77.5,77.5,77.5,77.5,77.5,0.0,34.63000000000002,34.62999999999999,34.63,34.63000000000001,34.63000000000002,1.2809491335957507e-14,-8.54,-17.42,-13.0575,-13.135,-17.42,3.318195104269791
1 -> 2,3.5721320000000016,3.572131999999999,3.5721320000000008,3.5721320000000008,3.5721320000000016,1.2755491433176288e-15,77.5,77.5,77.5,77.5,77.5,0.0,34.63000000000002,34.62999999999999,34.63,34.63000000000001,34.63000000000002,1.2809491335957507e-14,-8.54,-17.42,-13.0575,-13.135,-17.42,3.318195104269791
1 -> 2,3.5682910000000017,3.5682909999999977,3.5682910000000003,3.568291000000001,3.5682910000000017,1.631687946612622e-15,77.5,77.5,77.5,77.5,77.5,0.0,34.63000000000002,34.62999999999999,34.63,34.63000000000001,34.63000000000002,1.2809491335957507e-14,-19.82,-26.38,-23.0475,-22.994999999999997,-26.38,2.434742029456098
1 -> 2,3.5682910000000017,3.5682909999999977,3.5682910000000003,3.568291000000001,3.5682910000000017,1.631687946612622e-15,77.5,77.5,77.5,77.5,77.5,0.0,34.63000000000002,34.62999999999999,34.63,34.63000000000001,34.63000000000002,1.2809491335957507e-14,-19.82,-26.38,-23.0475,-22.994999999999997,-26.38,2.434742029456098
1 -> 2,3.5682910000000017,3.5682909999999977,3.5682910000000003,3.568291000000001,3.5682910000000017,1.631687946612622e-15,77.5,77.5,77.5,77.5,77.5,0.0,34.63000000000002,34.62999999999999,34.63,34.63000000000001,34.63000000000002,1.2809491335957507e-14,-29.22,-41.33,-35.025000000000006,-34.775000000000006,-41.33,4.530576674111145
1 -> 2,3.5682910000000017,3.5682909999999977,3.5682910000000003,3.568291000000001,3.5682910000000017,1.631687946612622e-15,77.5,77.5,77.5,77.5,77.5,0.0,34.63000000000002,34.62999999999999,34.63,34.63000000000001,34.63000000000002,1.2809491335957507e-14,-29.22,-41.33,-35.025000000000006,-34.775000000000006,-41.33,4.530576674111145
1 -> 2,3.5682910000000017,3.5682909999999977,3.5682910000000003,3.568291000000001,3.5682910000000017,1.631687946612622e-15,77.5,77.5,77.5,77.5,77.5,0.0,34.63000000000002,34.62999999999999,34.63,34.63000000000001,34.63000000000002,1.2809491335957507e-14,-45.6,-49.83,-48.055,-48.394999999999996,-49.83,1.5552572134537732
1 -> 2,3.5682910000000017,3.5682909999999977,3.5682910000000003,3.568291000000001,3.5682910000000017,1.631687946612622e-15,77.5,77.5,77.5,77.5,77.5,0.0,34.63000000000002,34.62999999999999,34.63,34.63000000000001,34.63000000000002,1.2809491335957507e-14,-45.6,-49.83,-48.055,-48.394999999999996,-49.83,1.5552572134537732
1 -> 2,3.5682910000000017,3.5682909999999977,3.5682910000000003,3.568291000000001,3.5682910000000017,1.631687946612622e-15,77.5,77.5,77.5,77.5,77.5,0.0,34.63000000000002,34.62999999999999,34.63,34.63000000000001,34.63000000000002,1.2809491335957507e-14,-15.59,-43.06,-29.922500000000003,-30.520000000000003,-43.06,10.303114516979806
1 -> 2,3.5682910000000017,3.5682909999999977,3.5682910000000003,3.568291000000001,3.5682910000000017,1.631687946612622e-15,77.5,77.5,77.5,77.5,77.5,0.0,34.63000000000002,34.62999999999999,34.63,34.63000000000001,34.63000000000002,1.2809491335957507e-14,-15.59,-43.06,-29.922500000000003,-30.520000000000003,-43.06,10.303114516979806
1 -> 2,3.5644500000000017,3.564449999999999,3.564450000000001,3.564450000000001,3.5644500000000017,1.1102230246251565e-15,77.5,77.5,77.5,77.5,77.5,0.0,34.63000000000002,34.62999999999999,34.63,34.63000000000001,34.63000000000002,1.2809491335957507e-14,14.19,-6.01,4.855,5.62,-6.01,7.565383334636785
1 -> 2,3.5644500000000017,3.564449999999999,3.564450000000001,3.564450000000001,3.5644500000000017,1.1102230246251565e-15,77.5,77.5,77.5,77.5,77.5,0.0,34.63000000000002,34.62999999999999,34.63,34.63000000000001,34.63000000000002,1.2809491335957507e-14,14.19,-6.01,4.855,5.62,-6.01,7.565383334636785
1 -> 2,3.5644500000000017,3.564449999999999,3.564450000000001,3.564450000000001,3.5644500000000017,1.1102230246251565e-15,77.5,77.5,77.5,77.5,77.5,0.0,34.63000000000002,34.62999999999999,34.63,34.63000000000001,34.63000000000002,1.2809491335957507e-14,22.7,18.06,20.925,21.47,18.06,1.8081689633438576
1 -> 2,3.5644500000000017,3.564449999999999,3.564450000000001,3.564450000000001,3.5644500000000017,1.1102230246251565e-15,77.5,77.5,77.5,77.5,77.5,0.0,34.63000000000002,34.62999999999999,34.63,34.63000000000001,34.63000000000002,1.2809491335957507e-14,22.7,18.06,20.925,21.47,18.06,1.8081689633438576
1 -> 2,3.5644500000000017,3.564449999999999,3.564450000000001,3.564450000000001,3.5644500000000017,1.1102230246251565e-15,77.5,77.5,77.5,77.5,77.5,0.0,34.63000000000002,34.62999999999999,34.63,34.63000000000001,34.63000000000002,1.2809491335957507e-14,22.4,20.7,21.474999999999998,21.4,20.7,0.649095524557056
1 -> 2,3.5644500000000017,3.564449999999999,3.564450000000001,3.564450000000001,3.5644500000000017,1.1102230246251565e-15,77.5,77.5,77.5,77.5,77.5,0.0,34.63000000000002,34.62999999999999,34.63,34.63000000000001,34.63000000000002,1.2809491335957507e-14,22.4,20.7,21.474999999999998,21.4,20.7,0.649095524557056
1 -> 2,3.5644500000000017,3.564449999999999,3.564450000000001,3.564450000000001,3.5644500000000017,1.1102230246251565e-15,77.5,77.5,77.5,77.5,77.5,0.0,34.63000000000002,34.62999999999999,34.63,34.63000000000001,34.63000000000002,1.2809491335957507e-14,21.08,20.67,20.92,20.965,20.67,0.16598192672697692
1 -> 2,3.5644500000000017,3.564449999999999,3.564450000000001,3.564450000000001,3.5644500000000017,1.1102230246251565e-15,77.5,77.5,77.5,77.5,77.5,0.0,34.63000000000002,34.62999999999999,34.63,34.63000000000001,34.63000000000002,1.2809491335957507e-14,21.08,20.67,20.92,20.965,20.67,0.16598192672697692
1 -> 2,3.5593280000000016,3.5593279999999994,3.5593280000000007,3.5593280000000016,3.5593280000000016,1.0175362097255202e-15,77.22,77.22,77.22,77.22,77.22,0.0,34.65000000000001,34.649999999999984,34.650000000000006,34.650000000000006,34.65000000000001,1.3759600911837627e-14,20.87,19.84,20.337500000000002,20.32,19.84,0.38854697270729127
1 -> 2,3.5593280000000016,3.5593279999999994,3.5593280000000007,3.5593280000000016,3.5593280000000016,1.0175362097255202e-15,77.22,77.22,77.22,77.22,77.22,0.0,34.65000000000001,34.649999999999984,34.650000000000006,34.650000000000006,34.65000000000001,1.3759600911837627e-14,20.87,19.84,20.337500000000002,20.32,19.84,0.38854697270729127
1 -> 2,3.5593280000000016,3.5593279999999994,3.5593280000000007,3.5593280000000016,3.5593280000000016,1.0175362097255202e-15,77.22,77.22,77.22,77.22,77.22,0.0,34.65000000000001,34.649999999999984,34.650000000000006,34.650000000000006,34.65000000000001,1.3759600911837627e-14,19.61,17.1,18.620000000000005,18.885,17.1,0.9633535176662817
1 -> 2,3.5593280000000016,3.5593279999999994,3.5593280000000007,3.5593280000000016,3.5593280000000016,1.0175362097255202e-15,77.22,77.22,77.22,77.22,77.22,0.0,34.65000000000001,34.649999999999984,34.650000000000006,34.650000000000006,34.65000000000001,1.3759600911837627e-14,19.61,17.1,18.620000000000005,18.885,17.1,0.9633535176662817
1 -> 2,3.5593280000000016,3.5593279999999994,3.5593280000000007,3.5593280000000016,3.5593280000000016,1.0175362097255202e-15,77.22,77.22,77.22,77.22,77.22,0.0,34.65000000000001,34.649999999999984,34.650000000000006,34.650000000000006,34.65000000000001,1.3759600911837627e-14,14.9,5.68,10.35,10.41,5.68,3.453360682002388
1 -> 2,3.5593280000000016,3.5593279999999994,3.5593280000000007,3.5593280000000016,3.5593280000000016,1.0175362097255202e-15,77.22,77.22,77.22,77.22,77.22,0.0,34.65000000000001,34.649999999999984,34.650000000000006,34.650000000000006,34.65000000000001,1.3759600911837627e-14,14.9,5.68,10.35,10.41,5.68,3.453360682002388
1 -> 2,3.5593280000000016,3.5593279999999994,3.5593280000000007,3.5593280000000016,3.5593280000000016,1.0175362097255202e-15,77.22,77.22,77.22,77.22,77.22,0.0,34.65000000000001,34.649999999999984,34.650000000000006,34.650000000000006,34.65000000000001,1.3759600911837627e-14,2.95,-3.32,-0.22999999999999987,-0.275,-3.32,2.32405894933842
1 -> 2,3.5593280000000016,3.5593279999999994,3.5593280000000007,3.5593280000000016,3.5593280000000016,1.0175362097255202e-15,77.22,77.22,77.22,77.22,77.22,0.0,34.65000000000001,34.649999999999984,34.650000000000006,34.650000000000006,34.65000000000001,1.3759600911837627e-14,2.95,-3.32,-0.22999999999999987,-0.275,-3.32,2.32405894933842
1 -> 2,3.5593280000000016,3.5593279999999994,3.5593280000000007,3.5593280000000016,3.5593280000000016,1.0175362097255202e-15,77.22,77.22,77.22,77.22,77.22,0.0,34.65000000000001,34.649999999999984,34.650000000000006,34.650000000000006,34.65000000000001,1.3759600911837627e-14,-5.78,-15.3,-10.46,-10.379999999999999,-15.3,3.560898762952971
1 -> 2,3.5593280000000016,3.5593279999999994,3.5593280000000007,3.5593280000000016,3.5593280000000016,1.0175362097255202e-15,77.22,77.22,77.22,77.22,77.22,0.0,34.65000000000001,34.649999999999984,34.650000000000006,34.650000000000006,34.65000000000001,1.3759600911837627e-14,-5.78,-15.3,-10.46,-10.379999999999999,-15.3,3.560898762952971
1 -> 2,3.5593280000000016,3.5593279999999994,3.5593280000000007,3.5593280000000016,3.5593280000000016,1.0175362097255202e-15,77.22,77.22,77.22,77.22,77.22,0.0,34.65000000000001,34.649999999999984,34.650000000000006,34.650000000000006,34.65000000000001,1.3759600911837627e-14,-18.27,-25.02,-21.752499999999998,-21.86,-25.02,2.508000946969518
1 -> 2,3.5593280000000016,3.5593279999999994,3.5593280000000007,3.5593280000000016,3.5593280000000016,1.0175362097255202e-15,77.22,77.22,77.22,77.22,77.22,0.0,34.65000000000001,34.649999999999984,34.650000000000006,34.650000000000006,34.65000000000001,1.3759600911837627e-14,-18.27,-25.02,-21.752499999999998,-21.86,-25.02,2.508000946969518
1 -> 2,3.5593280000000016,3.5593279999999994,3.5593280000000007,3.5593280000000016,3.5593280000000016,1.0175362097255202e-15,77.22,77.22,77.22,77.22,77.22,0.0,34.65000000000001,34.649999999999984,34.650000000000006,34.650000000000006,34.65000000000001,1.3759600911837627e-14,-27.4,-38.84,-32.722500000000004,-32.325,-38.84,4.283785563027171
1 -> 2,3.5593280000000016,3.5593279999999994,3.5593280000000007,3.5593280000000016,3.5593280000000016,1.0175362097255202e-15,77.22,77.22,77.22,77.22,77.22,0.0,34.65000000000001,34.649999999999984,34.650000000000006,34.650000000000006,34.65000000000001,1.3759600911837627e-14,-27.4,-38.84,-32.722500000000004,-32.325,-38.84,4.283785563027171
1 -> 2,3.5593280000000016,3.5593279999999994,3.5593280000000007,3.5593280000000016,3.5593280000000016,1.0175362097255202e-15,77.22,77.22,77.22,77.22,77.22,0.0,34.65000000000001,34.649999999999984,34.650000000000006,34.650000000000006,34.65000000000001,1.3759600911837627e-14,-43.83,-52.97,-49.295,-50.19,-52.97,3.5597085554859693
1 -> 2,3.5593280000000016,3.5593279999999994,3.5593280000000007,3.5593280000000016,3.5593280000000016,1.0175362097255202e-15,77.22,77.22,77.22,77.22,77.22,0.0,34.65000000000001,34.649999999999984,34.650000000000006,34.650000000000006,34.65000000000001,1.3759600911837627e-14,-43.83,-52.97,-49.295,-50.19,-52.97,3.5597085554859693
1 -> 2,3.5542070000000017,3.5542069999999972,3.5542070000000003,3.554207000000001,3.5542070000000017,1.817513422402428e-15,77.22,77.22,77.22,77.22,77.22,0.0,34.65000000000001,34.649999999999984,34.650000000000006,34.650000000000006,34.65000000000001,1.3759600911837627e-14,-27.66,-51.0,-40.5075,-41.685,-51.0,8.814900382307222
1 -> 2,3.5542070000000017,3.5542069999999972,3.5542070000000003,3.554207000000001,3.5542070000000017,1.817513422402428e-15,77.22,77.22,77.22,77.22,77.22,0.0,34.65000000000001,34.649999999999984,34.650000000000006,34.650000000000006,34.65000000000001,1.3759600911837627e-14,-27.66,-51.0,-40.5075,-41.685,-51.0,8.814900382307222
1 -> 2,3.5542070000000017,3.5542069999999972,3.5542070000000003,3.554207000000001,3.5542070000000017,1.817513422402428e-15,77.22,77.22,77.22,77.22,77.22,0.0,34.65000000000001,34.649999999999984,34.650000000000006,34.650000000000006,34.65000000000001,1.3759600911837627e-14,8.18,-17.13,-3.71,-2.945,-17.13,9.473903630499944
1 -> 2,3.5542070000000017,3.5542069999999972,3.5542070000000003,3.554207000000001,3.5542070000000017,1.817513422402428e-15,77.22,77.22,77.22,77.22,77.22,0.0,34.65000000000001,34.649999999999984,34.650000000000006,34.650000000000006,34.65000000000001,1.3759600911837627e-14,8.18,-17.13,-3.71,-2.945,-17.13,9.473903630499944
1 -> 2,3.5542070000000017,3.5542069999999972,3.5542070000000003,3.554207000000001,3.5542070000000017,1.817513422402428e-15,77.22,77.22,77.22,77.22,77.22,0.0,34.65000000000001,34.649999999999984,34.650000000000006,34.650000000000006,34.65000000000001,1.3759600911837627e-14,22.56,13.44,18.4475,18.895,13.44,3.4204778540432033
1 -> 2,3.5542070000000017,3.5542069999999972,3.5542070000000003,3.554207000000001,3.5542070000000017,1.817513422402428e-15,77.22,77.22,77.22,77.22,77.22,0.0,34.65000000000001,34.649999999999984,34.650000000000006,34.650000000000006,34.65000000000001,1.3759600911837627e-14,22.56,13.44,18.4475,18.895,13.44,3.4204778540432033
1 -> 2,3.5542070000000017,3.5542069999999972,3.5542070000000003,3.554207000000001,3.5542070000000017,1.817513422402428e-15,77.22,77.22,77.22,77.22,77.22,0.0,34.65000000000001,34.649999999999984,34.650000000000006,34.650000000000006,34.65000000000001,1.3759600911837627e-14,26.1,24.11,25.2725,25.439999999999998,24.11,0.755723990620915
1 -> 2,3.5542070000000017,3.5542069999999972,3.5542070000000003,3.554207000000001,3.5542070000000017,1.817513422402428e-15,77.22,77.22,77.22,77.22,77.22,0.0,34.65000000000001,34.649999999999984,34.650000000000006,34.650000000000006,34.65000000000001,1.3759600911837627e-14,26.1,24.11,25.2725,25.439999999999998,24.11,0.755723990620915
1 -> 2,3.5554870000000016,3.555487,3.555487000000001,3.555487000000001,3.5554870000000016,7.691850745534255e-16,77.22,77.22,77.22,77.22,77.22,0.0,34.65000000000001,34.649999999999984,34.650000000000006,34.650000000000006,34.65000000000001,1.3759600911837627e-14,26.83,26.34,26.6175,26.65,26.34,0.18739997331910102
1 -> 2,3.5554870000000016,3.555487,3.555487000000001,3.555487000000001,3.5554870000000016,7.691850745534255e-16,77.22,77.22,77.22,77.22,77.22,0.0,34.65000000000001,34.649999999999984,34.650000000000006,34.650000000000006,34.65000000000001,1.3759600911837627e-14,26.83,26.34,26.6175,26.65,26.34,0.18739997331910102
1 -> 2,3.5554870000000016,3.555487,3.555487000000001,3.555487000000001,3.5554870000000016,7.691850745534255e-16,77.22,77.22,77.22,77.22,77.22,0.0,34.65000000000001,34.649999999999984,34.650000000000006,34.650000000000006,34.65000000000001,1.3759600911837627e-14,26.7,24.95,25.9175,26.009999999999998,24.95,0.6628866796067034
1 -> 2,3.5554870000000016,3.555487,3.555487000000001,3.555487000000001,3.5554870000000016,7.691850745534255e-16,77.22,77.22,77.22,77.22,77.22,0.0,34.65000000000001,34.649999999999984,34.650000000000006,34.650000000000006,34.65000000000001,1.3759600911837627e-14,26.7,24.95,25.9175,26.009999999999998,24.95,0.6628866796067034
1 -> 2,3.5554870000000016,3.555487,3.555487000000001,3.555487000000001,3.5554870000000016,7.691850745534255e-16,77.22,77.22,77.22,77.22,77.22,0.0,34.65000000000001,34.649999999999984,34.650000000000006,34.650000000000006,34.65000000000001,1.3759600911837627e-14,24.23,22.69,23.435000000000002,23.41,22.69,0.5687925808236248
1 -> 2,3.5554870000000016,3.555487,3.555487000000001,3.555487000000001,3.5554870000000016,7.691850745534255e-16,77.22,77.22,77.22,77.22,77.22,0.0,34.65000000000001,34.649999999999984,34.650000000000006,34.650000000000006,34.65000000000001,1.3759600911837627e-14,24.23,22.69,23.435000000000002,23.41,22.69,0.5687925808236248
1 -> 2,3.5554870000000016,3.555487,3.555487000000001,3.555487000000001,3.5554870000000016,7.691850745534255e-16,77.22,77.22,77.22,77.22,77.22,0.0,34.65000000000001,34.649999999999984,34.650000000000006,34.650000000000006,34.65000000000001,1.3759600911837627e-14,21.95,16.7,19.595000000000002,19.865000000000002,16.7,1.977327742181351
1 -> 2,3.5554870000000016,3.555487,3.555487000000001,3.555487000000001,3.5554870000000016,7.691850745534255e-16,77.22,77.22,77.22,77.22,77.22,0.0,34.65000000000001,34.649999999999984,34.650000000000006,34.650000000000006,34.65000000000001,1.3759600911837627e-14,21.95,16.7,19.595000000000002,19.865000000000002,16.7,1.977327742181351
1 -> 2,3.5657300000000016,3.5657299999999967,3.56573,3.5657300000000003,3.5657300000000016,2.0471501066083613e-15,77.0,77.0,77.0,77.0,77.0,0.0,34.63000000000002,34.62999999999999,34.63,34.63000000000001,34.63000000000002,1.2809491335957507e-14,14.06,5.92,9.9475,9.905,5.92,3.0380205315303583
1 -> 2,3.5657300000000016,3.5657299999999967,3.56573,3.5657300000000003,3.5657300000000016,2.0471501066083613e-15,77.0,77.0,77.0,77.0,77.0,0.0,34.63000000000002,34.62999999999999,34.63,34.63000000000001,34.63000000000002,1.2809491335957507e-14,14.06,5.92,9.9475,9.905,5.92,3.0380205315303583
1 -> 2,3.5657300000000016,3.5657299999999967,3.56573,3.5657300000000003,3.5657300000000016,2.0471501066083613e-15,77.0,77.0,77.0,77.0,77.0,0.0,34.63000000000002,34.62999999999999,34.63,34.63000000000001,34.63000000000002,1.2809491335957507e-14,3.48,-3.39,0.05499999999999994,0.06499999999999995,-3.39,2.5558804745136263
1 -> 2,3.5657300000000016,3.5657299999999967,3.56573,3.5657300000000003,3.5657300000000016,2.0471501066083613e-15,77.0,77.0,77.0,77.0,77.0,0.0,34.63000000000002,34.62999999999999,34.63,34.63000000000001,34.63000000000002,1.2809491335957507e-14,3.48,-3.39,0.05499999999999994,0.06499999999999995,-3.39,2.5558804745136263
1 -> 2,3.5657300000000016,3.5657299999999967,3.56573,3.5657300000000003,3.5657300000000016,2.0471501066083613e-15,77.0,77.0,77.0,77.0,77.0,0.0,34.63000000000002,34.62999999999999,34.63,34.63000000000001,34.63000000000002,1.2809491335957507e-14,-5.93,-15.1,-10.41,-10.305,-15.1,3.422813170478342
1 -> 2,3.5657300000000016,3.5657299999999967,3.56573,3.5657300000000003,3.5657300000000016,2.0471501066083613e-15,77.0,77.0,77.0,77.0,77.0,0.0,34.63000000000002,34.62999999999999,34.63,34.63000000000001,34.63000000000002,1.2809491335957507e-14,-5.93,-15.1,-10.41,-10.305,-15.1,3.422813170478342
1 -> 2,3.5657300000000016,3.5657299999999967,3.56573,3.5657300000000003,3.5657300000000016,2.0471501066083613e-15,77.0,77.0,77.0,77.0,77.0,0.0,34.63000000000002,34.62999999999999,34.63,34.63000000000001,34.63000000000002,1.2809491335957507e-14,-18.29,-26.12,-22.365,-22.525,-26.12,2.92022687474792
1 -> 2,3.5657300000000016,3.5657299999999967,3.56573,3.5657300000000003,3.5657300000000016,2.0471501066083613e-15,77.0,77.0,77.0,77.0,77.0,0.0,34.63000000000002,34.62999999999999,34.63,34.63000000000001,34.63000000000002,1.2809491335957507e-14,-18.29,-26.12,-22.365,-22.525,-26.12,2.92022687474792
1 -> 2,3.597738000000002,3.5977379999999988,3.5977380000000005,3.5977380000000005,3.597738000000002,1.368774871883577e-15,77.0,77.0,77.0,77.0,77.0,0.0,34.63000000000002,34.62999999999999,34.63,34.63000000000001,34.63000000000002,1.2809491335957507e-14,-28.34,-37.55,-32.61,-32.275000000000006,-37.55,3.4398764512697246
1 -> 2,3.597738000000002,3.5977379999999988,3.5977380000000005,3.5977380000000005,3.597738000000002,1.368774871883577e-15,77.0,77.0,77.0,77.0,77.0,0.0,34.63000000000002,34.62999999999999,34.63,34.63000000000001,34.63000000000002,1.2809491335957507e-14,-28.34,-37.55,-32.61,-32.275000000000006,-37.55,3.4398764512697246
1 -> 2,3.597738000000002,3.5977379999999988,3.5977380000000005,3.5977380000000005,3.597738000000002,1.368774871883577e-15,77.0,77.0,77.0,77.0,77.0,0.0,34.63000000000002,34.62999999999999,34.63,34.63000000000001,34.63000000000002,1.2809491335957507e-14,-42.16,-56.66,-49.6675,-49.925,-56.66,5.4463628918756415
1 -> 2,3.597738000000002,3.5977379999999988,3.5977380000000005,3.5977380000000005,3.597738000000002,1.368774871883577e-15,77.0,77.0,77.0,77.0,77.0,0.0,34.63000000000002,34.62999999999999,34.63,34.63000000000001,34.63000000000002,1.2809491335957507e-14,-42.16,-56.66,-49.6675,-49.925,-56.66,5.4463628918756415
1 -> 2,3.597738000000002,3.5977379999999988,3.5977380000000005,3.5977380000000005,3.597738000000002,1.368774871883577e-15,77.0,77.0,77.0,77.0,77.0,0.0,34.63000000000002,34.62999999999999,34.63,34.63000000000001,34.63000000000002,1.2809491335957507e-14,-45.74,-58.72,-53.9025,-55.575,-58.72,5.127213546362194
1 -> 2,3.597738000000002,3.5977379999999988,3.5977380000000005,3.5977380000000005,3.597738000000002,1.368774871883577e-15,77.0,77.0,77.0,77.0,77.0,0.0,34.63000000000002,34.62999999999999,34.63,34.63000000000001,34.63000000000002,1.2809491335957507e-14,-45.74,-58.72,-53.9025,-55.575,-58.72,5.127213546362194
1 -> 2,3.597738000000002,3.5977379999999988,3.5977380000000005,3.5977380000000005,3.597738000000002,1.368774871883577e-15,77.0,77.0,77.0,77.0,77.0,0.0,34.63000000000002,34.62999999999999,34.63,34.63000000000001,34.63000000000002,1.2809491335957507e-14,-3.06,-35.72,-19.152500000000003,-18.915,-35.72,12.208311461868918
1 -> 2,3.597738000000002,3.5977379999999988,3.5977380000000005,3.5977380000000005,3.597738000000002,1.368774871883577e-15,77.0,77.0,77.0,77.0,77.0,0.0,34.63000000000002,34.62999999999999,34.63,34.63000000000001,34.63000000000002,1.2809491335957507e-14,-3.06,-35.72,-19.152500000000003,-18.915,-35.72,12.208311461868918
1 -> 2,3.6374280000000017,3.6374279999999994,3.637428000000001,3.6374280000000017,3.6374280000000017,9.678699938266253e-16,77.0,77.0,77.0,77.0,77.0,0.0,34.63000000000002,34.62999999999999,34.63,34.63000000000001,34.63000000000002,1.2809491335957507e-14,22.47,5.76,14.927499999999998,15.74,5.76,6.279121654339881
1 -> 2,3.6374280000000017,3.6374279999999994,3.637428000000001,3.6374280000000017,3.6374280000000017,9.678699938266253e-16,77.0,77.0,77.0,77.0,77.0,0.0,34.63000000000002,34.62999999999999,34.63,34.63000000000001,34.63000000000002,1.2809491335957507e-14,22.47,5.76,14.927499999999998,15.74,5.76,6.279121654339881
1 -> 2,3.6374280000000017,3.6374279999999994,3.637428000000001,3.6374280000000017,3.6374280000000017,9.678699938266253e-16,77.0,77.0,77.0,77.0,77.0,0.0,34.63000000000002,34.62999999999999,34.63,34.63000000000001,34.63000000000002,1.2809491335957507e-14,26.09,24.91,25.6625,25.825,24.91,0.4645091495331388
1 -> 2,3.6374280000000017,3.6374279999999994,3.637428000000001,3.6374280000000017,3.6374280000000017,9.678699938266253e-16,77.0,77.0,77.0,77.0,77.0,0.0,34.63000000000002,34.62999999999999,34.63,34.63000000000001,34.63000000000002,1.2809491335957507e-14,26.09,24.91,25.6625,25.825,24.91,0.4645091495331388
1 -> 2,3.6374280000000017,3.6374279999999994,3.637428000000001,3.6374280000000017,3.6374280000000017,9.678699938266253e-16,77.0,77.0,77.0,77.0,77.0,0.0,34.63000000000002,34.62999999999999,34.63,34.63000000000001,34.63000000000002,1.2809491335957507e-14,25.58,24.87,25.155,25.085,24.87,0.26177280225416744
1 -> 2,3.6374280000000017,3.6374279999999994,3.637428000000001,3.6374280000000017,3.6374280000000017,9.678699938266253e-16,77.0,77.0,77.0,77.0,77.0,0.0,34.63000000000002,34.62999999999999,34.63,34.63000000000001,34.63000000000002,1.2809491335957507e-14,25.58,24.87,25.155,25.085,24.87,0.26177280225416744
1 -> 2,3.6374280000000017,3.6374279999999994,3.637428000000001,3.6374280000000017,3.6374280000000017,9.678699938266253e-16,77.0,77.0,77.0,77.0,77.0,0.0,34.63000000000002,34.62999999999999,34.63,34.63000000000001,34.63000000000002,1.2809491335957507e-14,27.07,26.26,26.7625,26.86,26.26,0.3032634992873353
1 -> 2,3.6374280000000017,3.6374279999999994,3.637428000000001,3.6374280000000017,3.6374280000000017,9.678699938266253e-16,77.0,77.0,77.0,77.0,77.0,0.0,34.63000000000002,34.62999999999999,34.63,34.63000000000001,34.63000000000002,1.2809491335957507e-14,27.07,26.26,26.7625,26.86,26.26,0.3032634992873353
1 -> 2,3.6707170000000016,3.6707170000000002,3.6707170000000007,3.670717000000001,3.6707170000000016,6.661338147750939e-16,77.0,77.0,77.0,77.0,77.0,0.0,34.63000000000002,34.62999999999999,34.63,34.63000000000001,34.63000000000002,1.2809491335957507e-14,26.35,24.5,25.3725,25.32,24.5,0.6964328754445763
1 -> 2,3.6707170000000016,3.6707170000000002,3.6707170000000007,3.670717000000001,3.6707170000000016,6.661338147750939e-16,77.0,77.0,77.0,77.0,77.0,0.0,34.63000000000002,34.62999999999999,34.63,34.63000000000001,34.63000000000002,1.2809491335957507e-14,26.35,24.5,25.3725,25.32,24.5,0.6964328754445763
1 -> 2,3.6707170000000016,3.6707170000000002,3.6707170000000007,3.670717000000001,3.6707170000000016,6.661338147750939e-16,77.0,77.0,77.0,77.0,77.0,0.0,34.63000000000002,34.62999999999999,34.63,34.63000000000001,34.63000000000002,1.2809491335957507e-14,24.1,20.64,22.69,23.009999999999998,20.64,1.3188252348207476
1 -> 2,3.6707170000000016,3.6707170000000002,3.6707170000000007,3.670717000000001,3.6707170000000016,6.661338147750939e-16,77.0,77.0,77.0,77.0,77.0,0.0,34.63000000000002,34.62999999999999,34.63,34.63000000000001,34.63000000000002,1.2809491335957507e-14,24.1,20.64,22.69,23.009999999999998,20.64,1.3188252348207476
1 -> 2,3.6707170000000016,3.6707170000000002,3.6707170000000007,3.670717000000001,3.6707170000000016,6.661338147750939e-16,77.0,77.0,77.0,77.0,77.0,0.0,34.63000000000002,34.62999999999999,34.63,34.63000000000001,34.63000000000002,1.2809491335957507e-14,17.98,8.16,13.04,13.010000000000002,8.16,3.6765472933174683
1 -> 2,3.6707170000000016,3.6707170000000002,3.6707170000000007,3.670717000000001,3.6707170000000016,6.661338147750939e-16,77.0,77.0,77.0,77.0,77.0,0.0,34.63000000000002,34.62999999999999,34.63,34.63000000000001,34.63000000000002,1.2809491335957507e-14,17.98,8.16,13.04,13.010000000000002,8.16,3.6765472933174683
1 -> 2,3.6707170000000016,3.6707170000000002,3.6707170000000007,3.670717000000001,3.6707170000000016,6.661338147750939e-16,77.0,77.0,77.0,77.0,77.0,0.0,34.63000000000002,34.62999999999999,34.63,34.63000000000001,34.63000000000002,1.2809491335957507e-14,5.55,-0.38,2.5599999999999996,2.535,-0.38,2.196372008563212
1 -> 2,3.6707170000000016,3.6707170000000002,3.6707170000000007,3.670717000000001,3.6707170000000016,6.661338147750939e-16,77.0,77.0,77.0,77.0,77.0,0.0,34.63000000000002,34.62999999999999,34.63,34.63000000000001,34.63000000000002,1.2809491335957507e-14,5.55,-0.38,2.5599999999999996,2.535,-0.38,2.196372008563212
1 -> 2,3.691202000000002,3.691201999999999,3.6912020000000005,3.6912020000000005,3.691202000000002,1.2362920382602608e-15,76.09,76.09,76.09,76.09,76.09,0.0,34.63000000000002,34.62999999999999,34.63,34.63000000000001,34.63000000000002,1.2809491335957507e-14,-2.82,-12.63,-7.609999999999999,-7.494999999999999,-12.63,3.669107520910228
1 -> 2,3.691202000000002,3.691201999999999,3.6912020000000005,3.6912020000000005,3.691202000000002,1.2362920382602608e-15,76.09,76.09,76.09,76.09,76.09,0.0,34.63000000000002,34.62999999999999,34.63,34.63000000000001,34.63000000000002,1.2809491335957507e-14,-2.82,-12.63,-7.609999999999999,-7.494999999999999,-12.63,3.669107520910228
1 -> 2,3.691202000000002,3.691201999999999,3.6912020000000005,3.6912020000000005,3.691202000000002,1.2362920382602608e-15,76.09,76.09,76.09,76.09,76.09,0.0,34.63000000000002,34.62999999999999,34.63,34.63000000000001,34.63000000000002,1.2809491335957507e-14,-15.85,-23.53,-19.805,-19.92,-23.53,2.855665421578656
1 -> 2,3.691202000000002,3.691201999999999,3.6912020000000005,3.6912020000000005,3.691202000000002,1.2362920382602608e-15,76.09,76.09,76.09,76.09,76.09,0.0,34.63000000000002,34.62999999999999,34.63,34.63000000000001,34.63000000000002,1.2809491335957507e-14,-15.85,-23.53,-19.805,-19.92,-23.53,2.855665421578656
1 -> 2,3.691202000000002,3.691201999999999,3.6912020000000005,3.6912020000000005,3.691202000000002,1.2362920382602608e-15,76.09,76.09,76.09,76.09,76.09,0.0,34.63000000000002,34.62999999999999,34.63,34.63000000000001,34.63000000000002,1.2809491335957507e-14,-26.06,-36.76,-31.0925,-30.775,-36.76,3.9962067951996674
1 -> 2,3.691202000000002,3.691201999999999,3.6912020000000005,3.6912020000000005,3.691202000000002,1.2362920382602608e-15,76.09,76.09,76.09,76.09,76.09,0.0,34.63000000000002,34.62999999999999,34.63,34.63000000000001,34.63000000000002,1.2809491335957507e-14,-26.06,-36.76,-31.0925,-30.775,-36.76,3.9962067951996674
1 -> 2,3.691202000000002,3.691201999999999,3.6912020000000005,3.6912020000000005,3.691202000000002,1.2362920382602608e-15,76.09,76.09,76.09,76.09,76.09,0.0,34.63000000000002,34.62999999999999,34.63,34.63000000000001,34.63000000000002,1.2809491335957507e-14,-41.62,-55.89,-49.067499999999995,-49.379999999999995,-55.89,5.362109542894475
1 -> 2,3.691202000000002,3.691201999999999,3.6912020000000005,3.6912020000000005,3.691202000000002,1.2362920382602608e-15,76.09,76.09,76.09,76.09,76.09,0.0,34.63000000000002,34.62999999999999,34.63,34.63000000000001,34.63000000000002,1.2809491335957507e-14,-41.62,-55.89,-49.067499999999995,-49.379999999999995,-55.89,5.362109542894475
1 -> 2,3.688642000000002,3.6886419999999993,3.6886420000000006,3.6886420000000006,3.6886419999999993,1.3322676295501878e-15,76.09,76.09,76.09,76.09,76.09,0.0,34.63000000000002,34.62999999999999,34.63,34.63000000000001,34.63000000000002,1.2809491335957507e-14,-43.26,-57.71,-52.232499999999995,-53.980000000000004,-57.71,5.66840971966565
1 -> 2,3.688642000000002,3.6886419999999993,3.6886420000000006,3.6886420000000006,3.6886419999999993,1.3322676295501878e-15,76.09,76.09,76.09,76.09,76.09,0.0,34.63000000000002,34.62999999999999,34.63,34.63000000000001,34.63000000000002,1.2809491335957507e-14,-43.26,-57.71,-52.232499999999995,-53.980000000000004,-57.71,5.66840971966565
1 -> 2,3.688642000000002,3.6886419999999993,3.6886420000000006,3.6886420000000006,3.6886419999999993,1.3322676295501878e-15,76.09,76.09,76.09,76.09,76.09,0.0,34.63000000000002,34.62999999999999,34.63,34.63000000000001,34.63000000000002,1.2809491335957507e-14,1.25,-32.5,-15.2125,-14.8,-32.5,12.626599651133317
1 -> 2,3.688642000000002,3.6886419999999993,3.6886420000000006,3.6886420000000006,3.6886419999999993,1.3322676295501878e-15,76.09,76.09,76.09,76.09,76.09,0.0,34.63000000000002,34.62999999999999,34.63,34.63000000000001,34.63000000000002,1.2809491335957507e-14,1.25,-32.5,-15.2125,-14.8,-32.5,12.626599651133317
1 -> 2,3.688642000000002,3.6886419999999993,3.6886420000000006,3.6886420000000006,3.6886419999999993,1.3322676295501878e-15,76.09,76.09,76.09,76.09,76.09,0.0,34.63000000000002,34.62999999999999,34.63,34.63000000000001,34.63000000000002,1.2809491335957507e-14,23.95,9.58,17.5125,18.259999999999998,9.58,5.393080636333931
1 -> 2,3.688642000000002,3.6886419999999993,3.6886420000000006,3.6886420000000006,3.6886419999999993,1.3322676295501878e-15,76.09,76.09,76.09,76.09,76.09,0.0,34.63000000000002,34.62999999999999,34.63,34.63000000000001,34.63000000000002,1.2809491335957507e-14,23.95,9.58,17.5125,18.259999999999998,9.58,5.393080636333931
1 -> 2,3.688642000000002,3.6886419999999993,3.6886420000000006,3.6886420000000006,3.6886419999999993,1.3322676295501878e-15,76.09,76.09,76.09,76.09,76.09,0.0,34.63000000000002,34.62999999999999,34.63,34.63000000000001,34.63000000000002,1.2809491335957507e-14,29.29,26.34,28.127499999999998,28.44,26.34,1.1404686536683069
1 -> 2,3.688642000000002,3.6886419999999993,3.6886420000000006,3.6886420000000006,3.6886419999999993,1.3322676295501878e-15,76.09,76.09,76.09,76.09,76.09,0.0,34.63000000000002,34.62999999999999,34.63,34.63000000000001,34.63000000000002,1.2809491335957507e-14,29.29,26.34,28.127499999999998,28.44,26.34,1.1404686536683069
1 -> 2,3.684801000000002,3.684800999999998,3.684801,3.684801,3.684801000000002,1.897149936107019e-15,76.09,76.09,76.09,76.09,76.09,0.0,34.63000000000002,34.62999999999999,34.63,34.63000000000001,34.63000000000002,1.2809491335957507e-14,29.17,27.63,28.43,28.46,27.63,0.5801292959332435
1 -> 2,3.684801000000002,3.684800999999998,3.684801,3.684801,3.684801000000002,1.897149936107019e-15,76.09,76.09,76.09,76.09,76.09,0.0,34.63000000000002,34.62999999999999,34.63,34.63000000000001,34.63000000000002,1.2809491335957507e-14,29.17,27.63,28.43,28.46,27.63,0.5801292959332435
1 -> 2,3.684801000000002,3.684800999999998,3.684801,3.684801,3.684801000000002,1.897149936107019e-15,76.09,76.09,76.09,76.09,76.09,0.0,34.63000000000002,34.62999999999999,34.63,34.63000000000001,34.63000000000002,1.2809491335957507e-14,27.16,26.13,26.634999999999998,26.625,26.13,0.38252450901870344
1 -> 2,3.684801000000002,3.684800999999998,3.684801,3.684801,3.684801000000002,1.897149936107019e-15,76.09,76.09,76.09,76.09,76.09,0.0,34.63000000000002,34.62999999999999,34.63,34.63000000000001,34.63000000000002,1.2809491335957507e-14,27.16,26.13,26.634999999999998,26.625,26.13,0.38252450901870344
1 -> 2,3.684801000000002,3.684800999999998,3.684801,3.684801,3.684801000000002,1.897149936107019e-15,76.09,76.09,76.09,76.09,76.09,0.0,34.63000000000002,34.62999999999999,34.63,34.63000000000001,34.63000000000002,1.2809491335957507e-14,25.76,23.92,24.93,25.02,23.92,0.688004360451298
1 -> 2,3.684801000000002,3.684800999999998,3.684801,3.684801,3.684801000000002,1.897149936107019e-15,76.09,76.09,76.09,76.09,76.09,0.0,34.63000000000002,34.62999999999999,34.63,34.63000000000001,34.63000000000002,1.2809491335957507e-14,25.76,23.92,24.93,25.02,23.92,0.688004360451298
1 -> 2,3.684801000000002,3.684800999999998,3.684801,3.684801,3.684801000000002,1.897149936107019e-15,76.09,76.09,76.09,76.09,76.09,0.0,34.63000000000002,34.62999999999999,34.63,34.63000000000001,34.63000000000002,1.2809491335957507e-14,22.78,16.83,20.005,20.205,16.83,2.229422570981106
1 -> 2,3.684801000000002,3.684800999999998,3.684801,3.684801,3.684801000000002,1.897149936107019e-15,76.09,76.09,76.09,76.09,76.09,0.0,34.63000000000002,34.62999999999999,34.63,34.63000000000001,34.63000000000002,1.2809491335957507e-14,22.78,16.83,20.005,20.205,16.83,2.229422570981106
1 -> 2,3.664315000000002,3.6643149999999984,3.664315,3.664315,3.6643149999999984,1.7763568394002505e-15,76.09,76.09,76.09,76.09,76.09,0.0,34.63000000000002,34.62999999999999,34.63,34.63000000000001,34.63000000000002,1.2809491335957507e-14,14.24,6.21,10.2425,10.26,6.21,2.990797343518949
1 -> 2,3.664315000000002,3.6643149999999984,3.664315,3.664315,3.6643149999999984,1.7763568394002505e-15,76.09,76.09,76.09,76.09,76.09,0.0,34.63000000000002,34.62999999999999,34.63,34.63000000000001,34.63000000000002,1.2809491335957507e-14,14.24,6.21,10.2425,10.26,6.21,2.990797343518949
1 -> 2,3.664315000000002,3.6643149999999984,3.664315,3.664315,3.6643149999999984,1.7763568394002505e-15,76.09,76.09,76.09,76.09,76.09,0.0,34.63000000000002,34.62999999999999,34.63,34.63000000000001,34.63000000000002,1.2809491335957507e-14,3.25,-7.87,-2.135,-1.96,-7.87,4.153868678713856
1 -> 2,3.664315000000002,3.6643149999999984,3.664315,3.664315,3.6643149999999984,1.7763568394002505e-15,76.09,76.09,76.09,76.09,76.09,0.0,34.63000000000002,34.62999999999999,34.63,34.63000000000001,34.63000000000002,1.2809491335957507e-14,3.25,-7.87,-2.135,-1.96,-7.87,4.153868678713856
1 -> 2,3.664315000000002,3.6643149999999984,3.664315,3.664315,3.6643149999999984,1.7763568394002505e-15,76.09,76.09,76.09,76.09,76.09,0.0,34.63000000000002,34.62999999999999,34.63,34.63000000000001,34.63000000000002,1.2809491335957507e-14,-11.9,-21.99,-17.13,-17.315,-21.99,3.7611633838481406
1 -> 2,3.664315000000002,3.6643149999999984,3.664315,3.664315,3.6643149999999984,1.7763568394002505e-15,76.09,76.09,76.09,76.09,76.09,0.0,34.63000000000002,34.62999999999999,34.63,34.63000000000001,34.63000000000002,1.2809491335957507e-14,-11.9,-21.99,-17.13,-17.315,-21.99,3.7611633838481406
2 -> 3,3.664315000000002,3.6643149999999984,3.664315,3.664315,3.6643149999999984,1.7763568394002505e-15,76.09,76.09,76.09,76.09,76.09,0.0,34.63000000000002,34.62999999999999,34.63,34.63000000000001,34.63000000000002,1.2809491335957507e-14,-24.99,-37.47,-30.8375,-30.445,-37.47,4.664222202039693
2 -> 3,3.664315000000002,3.6643149999999984,3.664315,3.664315,3.6643149999999984,1.7763568394002505e-15,76.09,76.09,76.09,76.09,76.09,0.0,34.63000000000002,34.62999999999999,34.63,34.63000000000001,34.63000000000002,1.2809491335957507e-14,-24.99,-37.47,-30.8375,-30.445,-37.47,4.664222202039693
2 -> 3,3.6489510000000016,3.6489509999999985,3.6489510000000003,3.6489510000000003,3.6489510000000016,1.368774871883577e-15,75.33,75.33,75.33,75.33,75.33,0.0,34.63000000000002,34.62999999999999,34.63,34.63000000000001,34.63000000000002,1.2809491335957507e-14,-43.01,-54.82,-49.754999999999995,-50.595,-54.82,4.523508041332524
2 -> 3,3.6489510000000016,3.6489509999999985,3.6489510000000003,3.6489510000000003,3.6489510000000016,1.368774871883577e-15,75.33,75.33,75.33,75.33,75.33,0.0,34.63000000000002,34.62999999999999,34.63,34.63000000000001,34.63000000000002,1.2809491335957507e-14,-43.01,-54.82,-49.754999999999995,-50.595,-54.82,4.523508041332524
2 -> 3,3.6489510000000016,3.6489509999999985,3.6489510000000003,3.6489510000000003,3.6489510000000016,1.368774871883577e-15,75.33,75.33,75.33,75.33,75.33,0.0,34.63000000000002,34.62999999999999,34.63,34.63000000000001,34.63000000000002,1.2809491335957507e-14,-30.66,-53.72,-43.622499999999995,-45.055,-53.72,8.746571828436554
2 -> 3,3.6489510000000016,3.6489509999999985,3.6489510000000003,3.6489510000000003,3.6489510000000016,1.368774871883577e-15,75.33,75.33,75.33,75.33,75.33,0.0,34.63000000000002,34.62999999999999,34.63,34.63000000000001,34.63000000000002,1.2809491335957507e-14,-30.66,-53.72,-43.622499999999995,-45.055,-53.72,8.746571828436554
2 -> 3,3.6489510000000016,3.6489509999999985,3.6489510000000003,3.6489510000000003,3.6489510000000016,1.368774871883577e-15,75.33,75.33,75.33,75.33,75.33,0.0,34.63000000000002,34.62999999999999,34.63,34.63000000000001,34.63000000000002,1.2809491335957507e-14,11.0,-19.12,-3.3424999999999994,-2.625,-19.12,11.269348639118412
2 -> 3,3.6489510000000016,3.6489509999999985,3.6489510000000003,3.6489510000000003,3.6489510000000016,1.368774871883577e-15,75.33,75.33,75.33,75.33,75.33,0.0,34.63000000000002,34.62999999999999,34.63,34.63000000000001,34.63000000000002,1.2809491335957507e-14,11.0,-19.12,-3.3424999999999994,-2.625,-19.12,11.269348639118412
2 -> 3,3.6489510000000016,3.6489509999999985,3.6489510000000003,3.6489510000000003,3.6489510000000016,1.368774871883577e-15,75.33,75.33,75.33,75.33,75.33,0.0,34.63000000000002,34.62999999999999,34.63,34.63000000000001,34.63000000000002,1.2809491335957507e-14,28.3,17.66,23.65,24.32,17.66,4.012050597886323
2 -> 3,3.6489510000000016,3.6489509999999985,3.6489510000000003,3.6489510000000003,3.6489510000000016,1.368774871883577e-15,75.33,75.33,75.33,75.33,75.33,0.0,34.63000000000002,34.62999999999999,34.63,34.63000000000001,34.63000000000002,1.2809491335957507e-14,28.3,17.66,23.65,24.32,17.66,4.012050597886323
2 -> 3,3.6553530000000016,3.655353,3.6553530000000007,3.6553530000000007,3.655353,8.881784197001252e-16,75.33,75.33,75.33,75.33,75.33,0.0,34.63000000000002,34.62999999999999,34.63,34.63000000000001,34.63000000000002,1.2809491335957507e-14,30.03,29.55,29.7875,29.785,29.55,0.2142866071409966
2 -> 3,3.6553530000000016,3.655353,3.6553530000000007,3.6553530000000007,3.655353,8.881784197001252e-16,75.33,75.33,75.33,75.33,75.33,0.0,34.63000000000002,34.62999999999999,34.63,34.63000000000001,34.63000000000002,1.2809491335957507e-14,30.03,29.55,29.7875,29.785,29.55,0.2142866071409966
2 -> 3,3.6553530000000016,3.655353,3.6553530000000007,3.6553530000000007,3.655353,8.881784197001252e-16,75.33,75.33,75.33,75.33,75.33,0.0,34.63000000000002,34.62999999999999,34.63,34.63000000000001,34.63000000000002,1.2809491335957507e-14,29.14,28.2,28.63,28.59,28.2,0.3511409973215889
2 -> 3,3.6553530000000016,3.655353,3.6553530000000007,3.6553530000000007,3.655353,8.881784197001252e-16,75.33,75.33,75.33,75.33,75.33,0.0,34.63000000000002,34.62999999999999,34.63,34.63000000000001,34.63000000000002,1.2809491335957507e-14,29.14,28.2,28.63,28.59,28.2,0.3511409973215889
2 -> 3,3.6553530000000016,3.655353,3.6553530000000007,3.6553530000000007,3.655353,8.881784197001252e-16,75.33,75.33,75.33,75.33,75.33,0.0,34.63000000000002,34.62999999999999,34.63,34.63000000000001,34.63000000000002,1.2809491335957507e-14,27.92,26.31,27.18,27.244999999999997,26.31,0.6050206608042417
2 -> 3,3.6553530000000016,3.655353,3.6553530000000007,3.6553530000000007,3.655353,8.881784197001252e-16,75.33,75.33,75.33,75.33,75.33,0.0,34.63000000000002,34.62999999999999,34.63,34.63000000000001,34.63000000000002,1.2809491335957507e-14,27.92,26.31,27.18,27.244999999999997,26.31,0.6050206608042417
2 -> 3,3.6553530000000016,3.655353,3.6553530000000007,3.6553530000000007,3.655353,8.881784197001252e-16,75.33,75.33,75.33,75.33,75.33,0.0,34.63000000000002,34.62999999999999,34.63,34.63000000000001,34.63000000000002,1.2809491335957507e-14,25.57,22.36,24.080000000000002,24.195,22.36,1.1974347581392486
2 -> 3,3.6553530000000016,3.655353,3.6553530000000007,3.6553530000000007,3.655353,8.881784197001252e-16,75.33,75.33,75.33,75.33,75.33,0.0,34.63000000000002,34.62999999999999,34.63,34.63000000000001,34.63000000000002,1.2809491335957507e-14,25.57,22.36,24.080000000000002,24.195,22.36,1.1974347581392486
2 -> 3,3.7052860000000027,3.705285999999999,3.7052860000000014,3.705286000000002,3.705286000000002,1.3322676295501878e-15,75.33,75.33,75.33,75.33,75.33,0.0,34.63000000000002,34.62999999999999,34.63,34.63000000000001,34.63000000000002,1.2809491335957507e-14,20.69,13.69,17.3375,17.485,13.69,2.614778910347872
2 -> 3,3.7052860000000027,3.705285999999999,3.7052860000000014,3.705286000000002,3.705286000000002,1.3322676295501878e-15,75.33,75.33,75.33,75.33,75.33,0.0,34.63000000000002,34.62999999999999,34.63,34.63000000000001,34.63000000000002,1.2809491335957507e-14,20.69,13.69,17.3375,17.485,13.69,2.614778910347872
2 -> 3,3.7052860000000027,3.705285999999999,3.7052860000000014,3.705286000000002,3.705286000000002,1.3322676295501878e-15,75.33,75.33,75.33,75.33,75.33,0.0,34.63000000000002,34.62999999999999,34.63,34.63000000000001,34.63000000000002,1.2809491335957507e-14,10.79,0.33,5.6975,5.835,0.33,3.9032510488053416
2 -> 3,3.7052860000000027,3.705285999999999,3.7052860000000014,3.705286000000002,3.705286000000002,1.3322676295501878e-15,75.33,75.33,75.33,75.33,75.33,0.0,34.63000000000002,34.62999999999999,34.63,34.63000000000001,34.63000000000002,1.2809491335957507e-14,10.79,0.33,5.6975,5.835,0.33,3.9032510488053416
2 -> 3,3.7052860000000027,3.705285999999999,3.7052860000000014,3.705286000000002,3.705286000000002,1.3322676295501878e-15,75.33,75.33,75.33,75.33,75.33,0.0,34.63000000000002,34.62999999999999,34.63,34.63000000000001,34.63000000000002,1.2809491335957507e-14,-3.53,-13.89,-8.865,-9.02,-13.89,3.867043444286604
2 -> 3,3.7052860000000027,3.705285999999999,3.7052860000000014,3.705286000000002,3.705286000000002,1.3322676295501878e-15,75.33,75.33,75.33,75.33,75.33,0.0,34.63000000000002,34.62999999999999,34.63,34.63000000000001,34.63000000000002,1.2809491335957507e-14,-3.53,-13.89,-8.865,-9.02,-13.89,3.867043444286604
2 -> 3,3.7052860000000027,3.705285999999999,3.7052860000000014,3.705286000000002,3.705286000000002,1.3322676295501878e-15,75.33,75.33,75.33,75.33,75.33,0.0,34.63000000000002,34.62999999999999,34.63,34.63000000000001,34.63000000000002,1.2809491335957507e-14,-16.75,-26.01,-21.2025,-21.025,-26.01,3.444919266107698
2 -> 3,3.7052860000000027,3.705285999999999,3.7052860000000014,3.705286000000002,3.705286000000002,1.3322676295501878e-15,75.33,75.33,75.33,75.33,75.33,0.0,34.63000000000002,34.62999999999999,34.63,34.63000000000001,34.63000000000002,1.2809491335957507e-14,-16.75,-26.01,-21.2025,-21.025,-26.01,3.444919266107698
2 -> 3,3.7564990000000016,3.756498999999998,3.756499,3.7564990000000003,3.7564990000000016,1.6011864169946884e-15,75.33,75.33,75.33,75.33,75.33,0.0,34.63000000000002,34.62999999999999,34.63,34.63000000000001,34.63000000000002,1.2809491335957507e-14,-30.25,-46.21,-38.1375,-38.045,-46.21,5.974869768455209
2 -> 3,3.7564990000000016,3.756498999999998,3.756499,3.7564990000000003,3.7564990000000016,1.6011864169946884e-15,75.33,75.33,75.33,75.33,75.33,0.0,34.63000000000002,34.62999999999999,34.63,34.63000000000001,34.63000000000002,1.2809491335957507e-14,-30.25,-46.21,-38.1375,-38.045,-46.21,5.974869768455209
2 -> 3,3.7564990000000016,3.756498999999998,3.756499,3.7564990000000003,3.7564990000000016,1.6011864169946884e-15,75.33,75.33,75.33,75.33,75.33,0.0,34.63000000000002,34.62999999999999,34.63,34.63000000000001,34.63000000000002,1.2809491335957507e-14,-45.59,-52.25,-49.755,-50.59,-52.25,2.5015745041873116
2 -> 3,3.7564990000000016,3.756498999999998,3.756499,3.7564990000000003,3.7564990000000016,1.6011864169946884e-15,75.33,75.33,75.33,75.33,75.33,0.0,34.63000000000002,34.62999999999999,34.63,34.63000000000001,34.63000000000002,1.2809491335957507e-14,-45.59,-52.25,-49.755,-50.59,-52.25,2.5015745041873116
2 -> 3,3.7564990000000016,3.756498999999998,3.756499,3.7564990000000003,3.7564990000000016,1.6011864169946884e-15,75.33,75.33,75.33,75.33,75.33,0.0,34.63000000000002,34.62999999999999,34.63,34.63000000000001,34.63000000000002,1.2809491335957507e-14,-3.51,-37.08,-20.385,-20.475,-37.08,12.561183264326653
2 -> 3,3.7564990000000016,3.756498999999998,3.756499,3.7564990000000003,3.7564990000000016,1.6011864169946884e-15,75.33,75.33,75.33,75.33,75.33,0.0,34.63000000000002,34.62999999999999,34.63,34.63000000000001,34.63000000000002,1.2809491335957507e-14,-3.51,-37.08,-20.385,-20.475,-37.08,12.561183264326653
