PHASE,EDA_MAX,EDA_MIN,EDA_MEAN,EDA_MEDIAN,EDA_MODE,EDA_SD,HR_MAX,HR_MIN,HR_MEAN,HR_MEDIAN,HR_MODE,HR_SD,SKT_MAX,SKT_MIN,SKT_MEAN,SKT_MEDIAN,SKT_MODE,SKT_SD,BVP_MAX,BVP_MIN,BVP_MEAN,BVP_MEDIAN,BVP_MODE,BVP_SD
1 -> 2,0.3035110000000001,0.30351099999999986,0.303511,0.303511,0.3035110000000001,1.0007415106216802e-16,86.0,86.0,86.0,86.0,86.0,0.0,32.59000000000002,32.58999999999999,32.59,32.59,32.58999999999999,1.4210854715202004e-14,-48.79,-73.54,-61.5025,-61.84,-73.54,9.317146491818193
1 -> 2,0.3035110000000001,0.30351099999999986,0.303511,0.303511,0.3035110000000001,1.0007415106216802e-16,86.0,86.0,86.0,86.0,86.0,0.0,32.59000000000002,32.58999999999999,32.59,32.59,32.58999999999999,1.4210854715202004e-14,-48.79,-73.54,-61.5025,-61.84,-73.54,9.317146491818193
1 -> 2,0.3035110000000001,0.30351099999999986,0.303511,0.303511,0.3035110000000001,1.0007415106216802e-16,86.0,86.0,86.0,86.0,86.0,0.0,32.59000000000002,32.58999999999999,32.59,32.59,32.58999999999999,1.4210854715202004e-14,-40.07,-76.17,-61.897499999999994,-65.675,-76.17,14.00622607093003
1 -> 2,0.3035110000000001,0.30351099999999986,0.303511,0.303511,0.3035110000000001,1.0007415106216802e-16,86.0,86.0,86.0,86.0,86.0,0.0,32.59000000000002,32.58999999999999,32.59,32.59,32.58999999999999,1.4210854715202004e-14,-40.07,-76.17,-61.897499999999994,-65.675,-76.17,14.00622607093003
1 -> 2,0.3035110000000001,0.30351099999999986,0.303511,0.303511,0.3035110000000001,1.0007415106216802e-16,86.0,86.0,86.0,86.0,86.0,0.0,32.59000000000002,32.58999999999999,32.59,32.59,32.58999999999999,1.4210854715202004e-14,48.7,-16.16,18.0625,19.855,-16.16,24.323190965619624
1 -> 2,0.3035110000000001,0.30351099999999986,0.303511,0.303511,0.3035110000000001,1.0007415106216802e-16,86.0,86.0,86.0,86.0,86.0,0.0,32.59000000000002,32.58999999999999,32.59,32.59,32.58999999999999,1.4210854715202004e-14,48.7,-16.16,18.0625,19.855,-16.16,24.323190965619624
1 -> 2,0.3035110000000001,0.30351099999999986,0.303511,0.303511,0.3035110000000001,1.0007415106216802e-16,86.0,86.0,86.0,86.0,86.0,0.0,32.59000000000002,32.58999999999999,32.59,32.59,32.58999999999999,1.4210854715202004e-14,69.4,60.73,66.28999999999999,67.515,60.73,3.3026126021681708
1 -> 2,0.3035110000000001,0.30351099999999986,0.303511,0.303511,0.3035110000000001,1.0007415106216802e-16,86.0,86.0,86.0,86.0,86.0,0.0,32.59000000000002,32.58999999999999,32.59,32.59,32.58999999999999,1.4210854715202004e-14,69.4,60.73,66.28999999999999,67.515,60.73,3.3026126021681708
1 -> 2,0.3022300000000001,0.30222999999999994,0.30223,0.30223,0.30222999999999994,8.777083671441753e-17,86.0,86.0,86.0,86.0,86.0,0.0,32.59000000000002,32.58999999999999,32.59,32.59,32.58999999999999,1.4210854715202004e-14,62.91,38.9,51.325,51.745000000000005,38.9,8.997317655834987
1 -> 2,0.3022300000000001,0.30222999999999994,0.30223,0.30223,0.30222999999999994,8.777083671441753e-17,86.0,86.0,86.0,86.0,86.0,0.0,32.59000000000002,32.58999999999999,32.59,32.59,32.58999999999999,1.4210854715202004e-14,62.91,38.9,51.325,51.745000000000005,38.9,8.997317655834987
1 -> 2,0.3022300000000001,0.30222999999999994,0.30223,0.30223,0.30222999999999994,8.777083671441753e-17,86.0,86.0,86.0,86.0,86.0,0.0,32.59000000000002,32.58999999999999,32.59,32.59,32.58999999999999,1.4210854715202004e-14,30.9,15.9,22.6025,21.805,15.9,5.6412603866511954
1 -> 2,0.3022300000000001,0.30222999999999994,0.30223,0.30223,0.30222999999999994,8.777083671441753e-17,86.0,86.0,86.0,86.0,86.0,0.0,32.59000000000002,32.58999999999999,32.59,32.59,32.58999999999999,1.4210854715202004e-14,30.9,15.9,22.6025,21.805,15.9,5.6412603866511954
1 -> 2,0.3022300000000001,0.30222999999999994,0.30223,0.30223,0.30222999999999994,8.777083671441753e-17,86.0,86.0,86.0,86.0,86.0,0.0,32.59000000000002,32.58999999999999,32.59,32.59,32.58999999999999,1.4210854715202004e-14,13.61,9.02,11.285,11.255,9.02,1.6979178425353803
1 -> 2,0.3022300000000001,0.30222999999999994,0.30223,0.30223,0.30222999999999994,8.777083671441753e-17,86.0,86.0,86.0,86.0,86.0,0.0,32.59000000000002,32.58999999999999,32.59,32.59,32.58999999999999,1.4210854715202004e-14,13.61,9.02,11.285,11.255,9.02,1.6979178425353803
1 -> 2,0.3022300000000001,0.30222999999999994,0.30223,0.30223,0.30222999999999994,8.777083671441753e-17,86.0,86.0,86.0,86.0,86.0,0.0,32.59000000000002,32.58999999999999,32.59,32.59,32.58999999999999,1.4210854715202004e-14,7.08,-2.62,2.5725,2.915,-2.62,3.633024738423894
1 -> 2,0.3022300000000001,0.30222999999999994,0.30223,0.30223,0.30222999999999994,8.777083671441753e-17,86.0,86.0,86.0,86.0,86.0,0.0,32.59000000000002,32.58999999999999,32.59,32.59,32.58999999999999,1.4210854715202004e-14,7.08,-2.62,2.5725,2.915,-2.62,3.633024738423894
1 -> 2,0.3022300000000001,0.30222999999999994,0.30223,0.30223,0.30222999999999994,8.777083671441753e-17,86.0,86.0,86.0,86.0,86.0,0.0,32.59000000000002,32.58999999999999,32.59,32.59,32.58999999999999,1.4210854715202004e-14,-6.93,-18.85,-13.084999999999999,-13.280000000000001,-18.85,4.4541020419384205
1 -> 2,0.3022300000000001,0.30222999999999994,0.30223,0.30223,0.30222999999999994,8.777083671441753e-17,86.0,86.0,86.0,86.0,86.0,0.0,32.59000000000002,32.58999999999999,32.59,32.59,32.58999999999999,1.4210854715202004e-14,-6.93,-18.85,-13.084999999999999,-13.280000000000001,-18.85,4.4541020419384205
1 -> 2,0.3022300000000001,0.30222999999999994,0.30223,0.30223,0.30222999999999994,8.777083671441753e-17,86.0,86.0,86.0,86.0,86.0,0.0,32.59000000000002,32.58999999999999,32.59,32.59,32.58999999999999,1.4210854715202004e-14,-22.04,-33.81,-27.515,-27.104999999999997,-33.81,4.384498260918804
1 -> 2,0.3022300000000001,0.30222999999999994,0.30223,0.30223,0.30222999999999994,8.777083671441753e-17,86.0,86.0,86.0,86.0,86.0,0.0,32.59000000000002,32.58999999999999,32.59,32.59,32.58999999999999,1.4210854715202004e-14,-22.04,-33.81,-27.515,-27.104999999999997,-33.81,4.384498260918804
1 -> 2,0.3022300000000001,0.30222999999999994,0.30223,0.30223,0.30222999999999994,8.777083671441753e-17,86.0,86.0,86.0,86.0,86.0,0.0,32.59000000000002,32.58999999999999,32.59,32.59,32.58999999999999,1.4210854715202004e-14,-40.18,-64.12,-52.2175,-52.285,-64.12,8.985550553527592
1 -> 2,0.3022300000000001,0.30222999999999994,0.30223,0.30223,0.30222999999999994,8.777083671441753e-17,86.0,86.0,86.0,86.0,86.0,0.0,32.59000000000002,32.58999999999999,32.59,32.59,32.58999999999999,1.4210854715202004e-14,-40.18,-64.12,-52.2175,-52.285,-64.12,8.985550553527592
1 -> 2,0.3022300000000001,0.30222999999999994,0.30223,0.30223,0.30222999999999994,8.777083671441753e-17,86.0,86.0,86.0,86.0,86.0,0.0,32.59000000000002,32.58999999999999,32.59,32.59,32.58999999999999,1.4210854715202004e-14,-42.1,-68.38,-58.8925,-62.545,-68.38,10.45393077985501
1 -> 2,0.3022300000000001,0.30222999999999994,0.30223,0.30223,0.30222999999999994,8.777083671441753e-17,86.0,86.0,86.0,86.0,86.0,0.0,32.59000000000002,32.58999999999999,32.59,32.59,32.58999999999999,1.4210854715202004e-14,-42.1,-68.38,-58.8925,-62.545,-68.38,10.45393077985501
1 -> 2,0.3022300000000001,0.30222999999999994,0.30223,0.30223,0.30222999999999994,8.777083671441753e-17,86.0,86.0,86.0,86.0,86.0,0.0,32.59000000000002,32.58999999999999,32.59,32.59,32.58999999999999,1.4210854715202004e-14,43.93,-20.6,13.01,14.355,-20.6,24.191160575714427
1 -> 2,0.3022300000000001,0.30222999999999994,0.30223,0.30223,0.30222999999999994,8.777083671441753e-17,86.0,86.0,86.0,86.0,86.0,0.0,32.59000000000002,32.58999999999999,32.59,32.59,32.58999999999999,1.4210854715202004e-14,43.93,-20.6,13.01,14.355,-20.6,24.191160575714427
1 -> 2,0.3022300000000001,0.30222999999999994,0.30223,0.30223,0.30222999999999994,8.777083671441753e-17,86.0,86.0,86.0,86.0,86.0,0.0,32.59000000000002,32.58999999999999,32.59,32.59,32.58999999999999,1.4210854715202004e-14,66.77,56.83,63.2825,64.765,56.83,3.833636491635586
1 -> 2,0.3022300000000001,0.30222999999999994,0.30223,0.30223,0.30222999999999994,8.777083671441753e-17,86.0,86.0,86.0,86.0,86.0,0.0,32.59000000000002,32.58999999999999,32.59,32.59,32.58999999999999,1.4210854715202004e-14,66.77,56.83,63.2825,64.765,56.83,3.833636491635586
1 -> 2,0.3022300000000001,0.30222999999999994,0.30223,0.30223,0.30222999999999994,8.777083671441753e-17,86.0,86.0,86.0,86.0,86.0,0.0,32.59000000000002,32.58999999999999,32.59,32.59,32.58999999999999,1.4210854715202004e-14,60.53,33.16,47.5475,48.25,33.16,10.267149981859621
1 -> 2,0.3022300000000001,0.30222999999999994,0.30223,0.30223,0.30222999999999994,8.777083671441753e-17,86.0,86.0,86.0,86.0,86.0,0.0,32.59000000000002,32.58999999999999,32.59,32.59,32.58999999999999,1.4210854715202004e-14,60.53,33.16,47.5475,48.25,33.16,10.267149981859621
1 -> 2,0.3022300000000001,0.30222999999999994,0.30223,0.30223,0.30222999999999994,8.777083671441753e-17,86.0,86.0,86.0,86.0,86.0,0.0,32.59000000000002,32.58999999999999,32.59,32.59,32.58999999999999,1.4210854715202004e-14,23.33,6.74,13.7675,12.5,6.74,6.312409900347093
1 -> 2,0.3022300000000001,0.30222999999999994,0.30223,0.30223,0.30222999999999994,8.777083671441753e-17,86.0,86.0,86.0,86.0,86.0,0.0,32.59000000000002,32.58999999999999,32.59,32.59,32.58999999999999,1.4210854715202004e-14,23.33,6.74,13.7675,12.5,6.74,6.312409900347093
1 -> 2,0.3022300000000001,0.30222999999999994,0.30223,0.30223,0.30222999999999994,8.777083671441753e-17,86.5,86.5,86.5,86.5,86.5,0.0,32.59000000000002,32.58999999999999,32.59,32.59,32.58999999999999,1.4210854715202004e-14,5.66,3.73,4.98,5.265000000000001,3.73,0.7522300180131075
1 -> 2,0.3022300000000001,0.30222999999999994,0.30223,0.30223,0.30222999999999994,8.777083671441753e-17,86.5,86.5,86.5,86.5,86.5,0.0,32.59000000000002,32.58999999999999,32.59,32.59,32.58999999999999,1.4210854715202004e-14,5.66,3.73,4.98,5.265000000000001,3.73,0.7522300180131075
1 -> 2,0.3022300000000001,0.30222999999999994,0.30223,0.30223,0.30222999999999994,8.777083671441753e-17,86.5,86.5,86.5,86.5,86.5,0.0,32.59000000000002,32.58999999999999,32.59,32.59,32.58999999999999,1.4210854715202004e-14,1.2,-9.57,-4.1675,-4.15,-9.57,4.037873047781468
1 -> 2,0.3022300000000001,0.30222999999999994,0.30223,0.30223,0.30222999999999994,8.777083671441753e-17,86.5,86.5,86.5,86.5,86.5,0.0,32.59000000000002,32.58999999999999,32.59,32.59,32.58999999999999,1.4210854715202004e-14,1.2,-9.57,-4.1675,-4.15,-9.57,4.037873047781468
1 -> 2,0.3022300000000001,0.30222999999999994,0.30223,0.30223,0.30222999999999994,8.777083671441753e-17,86.5,86.5,86.5,86.5,86.5,0.0,32.59000000000002,32.58999999999999,32.59,32.59,32.58999999999999,1.4210854715202004e-14,-12.47,-20.24,-16.1925,-16.03,-20.24,2.8756249320799814
1 -> 2,0.3022300000000001,0.30222999999999994,0.30223,0.30223,0.30222999999999994,8.777083671441753e-17,86.5,86.5,86.5,86.5,86.5,0.0,32.59000000000002,32.58999999999999,32.59,32.59,32.58999999999999,1.4210854715202004e-14,-12.47,-20.24,-16.1925,-16.03,-20.24,2.8756249320799814
1 -> 2,0.3022300000000001,0.30222999999999994,0.30223,0.30223,0.30222999999999994,8.777083671441753e-17,86.5,86.5,86.5,86.5,86.5,0.0,32.59000000000002,32.58999999999999,32.59,32.59,32.58999999999999,1.4210854715202004e-14,-24.55,-46.93,-35.04,-34.34,-46.93,8.387854314423922
1 -> 2,0.3022300000000001,0.30222999999999994,0.30223,0.30223,0.30222999999999994,8.777083671441753e-17,86.5,86.5,86.5,86.5,86.5,0.0,32.59000000000002,32.58999999999999,32.59,32.59,32.58999999999999,1.4210854715202004e-14,-24.55,-46.93,-35.04,-34.34,-46.93,8.387854314423922
1 -> 2,0.3022300000000001,0.30222999999999994,0.30223,0.30223,0.30222999999999994,8.777083671441753e-17,86.5,86.5,86.5,86.5,86.5,0.0,32.59000000000002,32.58999999999999,32.59,32.59,32.58999999999999,1.4210854715202004e-14,-55.73,-66.07,-62.04,-63.18,-66.07,3.8378183907006327
1 -> 2,0.3022300000000001,0.30222999999999994,0.30223,0.30223,0.30222999999999994,8.777083671441753e-17,86.5,86.5,86.5,86.5,86.5,0.0,32.59000000000002,32.58999999999999,32.59,32.59,32.58999999999999,1.4210854715202004e-14,-55.73,-66.07,-62.04,-63.18,-66.07,3.8378183907006327
1 -> 2,0.3022300000000001,0.30222999999999994,0.30223,0.30223,0.30222999999999994,8.777083671441753e-17,86.5,86.5,86.5,86.5,86.5,0.0,32.59000000000002,32.58999999999999,32.59,32.59,32.58999999999999,1.4210854715202004e-14,5.13,-54.11,-26.122500000000002,-27.755,-54.11,22.247477806484042
1 -> 2,0.3022300000000001,0.30222999999999994,0.30223,0.30223,0.30222999999999994,8.777083671441753e-17,86.5,86.5,86.5,86.5,86.5,0.0,32.59000000000002,32.58999999999999,32.59,32.59,32.58999999999999,1.4210854715202004e-14,5.13,-54.11,-26.122500000000002,-27.755,-54.11,22.247477806484042
1 -> 2,0.3022300000000001,0.30222999999999994,0.30223,0.30223,0.30222999999999994,8.777083671441753e-17,86.5,86.5,86.5,86.5,86.5,0.0,32.59000000000002,32.58999999999999,32.59,32.59,32.58999999999999,1.4210854715202004e-14,64.56,26.4,47.9625,50.445,26.4,14.444169022481011
1 -> 2,0.3022300000000001,0.30222999999999994,0.30223,0.30223,0.30222999999999994,8.777083671441753e-17,86.5,86.5,86.5,86.5,86.5,0.0,32.59000000000002,32.58999999999999,32.59,32.59,32.58999999999999,1.4210854715202004e-14,64.56,26.4,47.9625,50.445,26.4,14.444169022481011
1 -> 2,0.3022300000000001,0.30222999999999994,0.30223,0.30223,0.30222999999999994,8.777083671441753e-17,86.5,86.5,86.5,86.5,86.5,0.0,32.59000000000002,32.58999999999999,32.59,32.59,32.58999999999999,1.4210854715202004e-14,67.58,53.26,62.165,63.91,53.26,5.6349822537431296
1 -> 2,0.3022300000000001,0.30222999999999994,0.30223,0.30223,0.30222999999999994,8.777083671441753e-17,86.5,86.5,86.5,86.5,86.5,0.0,32.59000000000002,32.58999999999999,32.59,32.59,32.58999999999999,1.4210854715202004e-14,67.58,53.26,62.165,63.91,53.26,5.6349822537431296
1 -> 2,0.3022300000000001,0.30222999999999994,0.30223,0.30223,0.30222999999999994,8.777083671441753e-17,86.5,86.5,86.5,86.5,86.5,0.0,32.59000000000002,32.58999999999999,32.59,32.59,32.58999999999999,1.4210854715202004e-14,42.86,12.86,27.1225,26.384999999999998,12.86,11.255852644291325
1 -> 2,0.3022300000000001,0.30222999999999994,0.30223,0.30223,0.30222999999999994,8.777083671441753e-17,86.5,86.5,86.5,86.5,86.5,0.0,32.59000000000002,32.58999999999999,32.59,32.59,32.58999999999999,1.4210854715202004e-14,42.86,12.86,27.1225,26.384999999999998,12.86,11.255852644291325
1 -> 2,0.3022300000000001,0.30222999999999994,0.30223,0.30223,0.30222999999999994,8.777083671441753e-17,86.5,86.5,86.5,86.5,86.5,0.0,32.59000000000002,32.58999999999999,32.59,32.59,32.58999999999999,1.4210854715202004e-14,7.39,2.81,4.545,3.99,2.81,1.75695048308141
1 -> 2,0.3022300000000001,0.30222999999999994,0.30223,0.30223,0.30222999999999994,8.777083671441753e-17,86.5,86.5,86.5,86.5,86.5,0.0,32.59000000000002,32.58999999999999,32.59,32.59,32.58999999999999,1.4210854715202004e-14,7.39,2.81,4.545,3.99,2.81,1.75695048308141
1 -> 2,0.3022300000000001,0.30222999999999994,0.30223,0.30223,0.30222999999999994,8.777083671441753e-17,86.5,86.5,86.5,86.5,86.5,0.0,32.59000000000002,32.58999999999999,32.59,32.59,32.58999999999999,1.4210854715202004e-14,1.62,-8.37,-2.9174999999999995,-2.46,-8.37,3.768039112058154
1 -> 2,0.3022300000000001,0.30222999999999994,0.30223,0.30223,0.30222999999999994,8.777083671441753e-17,86.5,86.5,86.5,86.5,86.5,0.0,32.59000000000002,32.58999999999999,32.59,32.59,32.58999999999999,1.4210854715202004e-14,1.62,-8.37,-2.9174999999999995,-2.46,-8.37,3.768039112058154
1 -> 2,0.3022300000000001,0.30222999999999994,0.30223,0.30223,0.30222999999999994,8.777083671441753e-17,86.5,86.5,86.5,86.5,86.5,0.0,32.59000000000002,32.58999999999999,32.59,32.59,32.58999999999999,1.4210854715202004e-14,-12.56,-21.43,-17.33,-17.665,-21.43,3.3152450889790934
1 -> 2,0.3022300000000001,0.30222999999999994,0.30223,0.30223,0.30222999999999994,8.777083671441753e-17,86.5,86.5,86.5,86.5,86.5,0.0,32.59000000000002,32.58999999999999,32.59,32.59,32.58999999999999,1.4210854715202004e-14,-12.56,-21.43,-17.33,-17.665,-21.43,3.3152450889790934
1 -> 2,0.3035110000000001,0.30351099999999986,0.303511,0.303511,0.3035110000000001,1.0007415106216802e-16,86.5,86.5,86.5,86.5,86.5,0.0,32.59000000000002,32.58999999999999,32.59,32.59,32.58999999999999,1.4210854715202004e-14,-23.76,-38.11,-30.0675,-29.2,-38.11,5.402228128281885
1 -> 2,0.3035110000000001,0.30351099999999986,0.303511,0.303511,0.3035110000000001,1.0007415106216802e-16,86.5,86.5,86.5,86.5,86.5,0.0,32.59000000000002,32.58999999999999,32.59,32.59,32.58999999999999,1.4210854715202004e-14,-23.76,-38.11,-30.0675,-29.2,-38.11,5.402228128281885
1 -> 2,0.3035110000000001,0.30351099999999986,0.303511,0.303511,0.3035110000000001,1.0007415106216802e-16,86.5,86.5,86.5,86.5,86.5,0.0,32.59000000000002,32.58999999999999,32.59,32.59,32.58999999999999,1.4210854715202004e-14,-46.55,-70.52,-59.43249999999999,-60.33,-70.52,9.064991381683713
1 -> 2,0.3035110000000001,0.30351099999999986,0.303511,0.303511,0.3035110000000001,1.0007415106216802e-16,86.5,86.5,86.5,86.5,86.5,0.0,32.59000000000002,32.58999999999999,32.59,32.59,32.58999999999999,1.4210854715202004e-14,-46.55,-70.52,-59.43249999999999,-60.33,-70.52,9.064991381683713
1 -> 2,0.3035110000000001,0.30351099999999986,0.303511,0.303511,0.3035110000000001,1.0007415106216802e-16,86.5,86.5,86.5,86.5,86.5,0.0,32.59000000000002,32.58999999999999,32.59,32.59,32.58999999999999,1.4210854715202004e-14,-30.97,-71.09,-54.410000000000004,-57.790000000000006,-71.09,15.374077208079843
1 -> 2,0.3035110000000001,0.30351099999999986,0.303511,0.303511,0.3035110000000001,1.0007415106216802e-16,86.5,86.5,86.5,86.5,86.5,0.0,32.59000000000002,32.58999999999999,32.59,32.59,32.58999999999999,1.4210854715202004e-14,-30.97,-71.09,-54.410000000000004,-57.790000000000006,-71.09,15.374077208079843
1 -> 2,0.3035110000000001,0.30351099999999986,0.303511,0.303511,0.3035110000000001,1.0007415106216802e-16,86.5,86.5,86.5,86.5,86.5,0.0,32.59000000000002,32.58999999999999,32.59,32.59,32.58999999999999,1.4210854715202004e-14,54.3,-7.49,25.182499999999997,26.96,-7.49,23.168992614052083
1 -> 2,0.3035110000000001,0.30351099999999986,0.303511,0.303511,0.3035110000000001,1.0007415106216802e-16,86.5,86.5,86.5,86.5,86.5,0.0,32.59000000000002,32.58999999999999,32.59,32.59,32.58999999999999,1.4210854715202004e-14,54.3,-7.49,25.182499999999997,26.96,-7.49,23.168992614052083
1 -> 2,0.3022300000000001,0.30222999999999994,0.30223,0.30223,0.30222999999999994,8.777083671441753e-17,86.67,86.67,86.67,86.67,86.67,0.0,32.570000000000014,32.57000000000001,32.57000000000001,32.57000000000001,32.57000000000001,5.0242958677880805e-15,73.17,65.7,70.21000000000001,70.985,65.7,2.821090214792855
1 -> 2,0.3022300000000001,0.30222999999999994,0.30223,0.30223,0.30222999999999994,8.777083671441753e-17,86.67,86.67,86.67,86.67,86.67,0.0,32.570000000000014,32.57000000000001,32.57000000000001,32.57000000000001,32.57000000000001,5.0242958677880805e-15,73.17,65.7,70.21000000000001,70.985,65.7,2.821090214792855
1 -> 2,0.3022300000000001,0.30222999999999994,0.30223,0.30223,0.30222999999999994,8.777083671441753e-17,86.67,86.67,86.67,86.67,86.67,0.0,32.570000000000014,32.57000000000001,32.57000000000001,32.57000000000001,32.57000000000001,5.0242958677880805e-15,63.16,29.96,46.96,47.36,29.96,12.44726676825077
1 -> 2,0.3022300000000001,0.30222999999999994,0.30223,0.30223,0.30222999999999994,8.777083671441753e-17,86.67,86.67,86.67,86.67,86.67,0.0,32.570000000000014,32.57000000000001,32.57000000000001,32.57000000000001,32.57000000000001,5.0242958677880805e-15,63.16,29.96,46.96,47.36,29.96,12.44726676825077
1 -> 2,0.3022300000000001,0.30222999999999994,0.30223,0.30223,0.30222999999999994,8.777083671441753e-17,86.67,86.67,86.67,86.67,86.67,0.0,32.570000000000014,32.57000000000001,32.57000000000001,32.57000000000001,32.57000000000001,5.0242958677880805e-15,20.19,7.84,12.717500000000001,11.42,7.84,4.753106221198934
1 -> 2,0.3022300000000001,0.30222999999999994,0.30223,0.30223,0.30222999999999994,8.777083671441753e-17,86.67,86.67,86.67,86.67,86.67,0.0,32.570000000000014,32.57000000000001,32.57000000000001,32.57000000000001,32.57000000000001,5.0242958677880805e-15,20.19,7.84,12.717500000000001,11.42,7.84,4.753106221198934
1 -> 2,0.3022300000000001,0.30222999999999994,0.30223,0.30223,0.30222999999999994,8.777083671441753e-17,86.67,86.67,86.67,86.67,86.67,0.0,32.570000000000014,32.57000000000001,32.57000000000001,32.57000000000001,32.57000000000001,5.0242958677880805e-15,6.95,-0.95,3.6025,4.205,-0.95,3.0070032840021974
1 -> 2,0.3022300000000001,0.30222999999999994,0.30223,0.30223,0.30222999999999994,8.777083671441753e-17,86.67,86.67,86.67,86.67,86.67,0.0,32.570000000000014,32.57000000000001,32.57000000000001,32.57000000000001,32.57000000000001,5.0242958677880805e-15,6.95,-0.95,3.6025,4.205,-0.95,3.0070032840021974
1 -> 2,0.3009500000000001,0.30094999999999983,0.30095,0.3009500000000001,0.3009500000000001,1.2719202621569003e-16,86.67,86.67,86.67,86.67,86.67,0.0,32.570000000000014,32.57000000000001,32.57000000000001,32.57000000000001,32.57000000000001,5.0242958677880805e-15,-5.32,-15.4,-10.7475,-11.135,-15.4,3.7776406327230228
1 -> 2,0.3009500000000001,0.30094999999999983,0.30095,0.3009500000000001,0.3009500000000001,1.2719202621569003e-16,86.67,86.67,86.67,86.67,86.67,0.0,32.570000000000014,32.57000000000001,32.57000000000001,32.57000000000001,32.57000000000001,5.0242958677880805e-15,-5.32,-15.4,-10.7475,-11.135,-15.4,3.7776406327230228
1 -> 2,0.3009500000000001,0.30094999999999983,0.30095,0.3009500000000001,0.3009500000000001,1.2719202621569003e-16,86.67,86.67,86.67,86.67,86.67,0.0,32.570000000000014,32.57000000000001,32.57000000000001,32.57000000000001,32.57000000000001,5.0242958677880805e-15,-17.54,-27.54,-21.985,-21.43,-27.54,3.747062182563828
1 -> 2,0.3009500000000001,0.30094999999999983,0.30095,0.3009500000000001,0.3009500000000001,1.2719202621569003e-16,86.67,86.67,86.67,86.67,86.67,0.0,32.570000000000014,32.57000000000001,32.57000000000001,32.57000000000001,32.57000000000001,5.0242958677880805e-15,-17.54,-27.54,-21.985,-21.43,-27.54,3.747062182563828
1 -> 2,0.3009500000000001,0.30094999999999983,0.30095,0.3009500000000001,0.3009500000000001,1.2719202621569003e-16,86.67,86.67,86.67,86.67,86.67,0.0,32.570000000000014,32.57000000000001,32.57000000000001,32.57000000000001,32.57000000000001,5.0242958677880805e-15,-33.86,-60.39,-46.905,-46.685,-60.39,9.947679377623707
1 -> 2,0.3009500000000001,0.30094999999999983,0.30095,0.3009500000000001,0.3009500000000001,1.2719202621569003e-16,86.67,86.67,86.67,86.67,86.67,0.0,32.570000000000014,32.57000000000001,32.57000000000001,32.57000000000001,32.57000000000001,5.0242958677880805e-15,-33.86,-60.39,-46.905,-46.685,-60.39,9.947679377623707
1 -> 2,0.3009500000000001,0.30094999999999983,0.30095,0.3009500000000001,0.3009500000000001,1.2719202621569003e-16,86.67,86.67,86.67,86.67,86.67,0.0,32.570000000000014,32.57000000000001,32.57000000000001,32.57000000000001,32.57000000000001,5.0242958677880805e-15,-47.81,-67.91,-61.067499999999995,-64.275,-67.91,7.99699435725698
1 -> 2,0.3009500000000001,0.30094999999999983,0.30095,0.3009500000000001,0.3009500000000001,1.2719202621569003e-16,86.67,86.67,86.67,86.67,86.67,0.0,32.570000000000014,32.57000000000001,32.57000000000001,32.57000000000001,32.57000000000001,5.0242958677880805e-15,-47.81,-67.91,-61.067499999999995,-64.275,-67.91,7.99699435725698
1 -> 2,0.3009500000000001,0.30094999999999983,0.30095,0.3009500000000001,0.3009500000000001,1.2719202621569003e-16,86.67,86.67,86.67,86.67,86.67,0.0,32.570000000000014,32.57000000000001,32.57000000000001,32.57000000000001,32.57000000000001,5.0242958677880805e-15,40.74,-27.45,7.452500000000001,8.26,-27.45,25.540850000538352
1 -> 2,0.3009500000000001,0.30094999999999983,0.30095,0.3009500000000001,0.3009500000000001,1.2719202621569003e-16,86.67,86.67,86.67,86.67,86.67,0.0,32.570000000000014,32.57000000000001,32.57000000000001,32.57000000000001,32.57000000000001,5.0242958677880805e-15,40.74,-27.45,7.452500000000001,8.26,-27.45,25.540850000538352
1 -> 2,0.3009500000000001,0.30094999999999983,0.30095,0.3009500000000001,0.3009500000000001,1.2719202621569003e-16,86.67,86.67,86.67,86.67,86.67,0.0,32.570000000000014,32.57000000000001,32.57000000000001,32.57000000000001,32.57000000000001,5.0242958677880805e-15,72.7,56.41,66.92999999999999,69.305,56.41,6.498480591646022
1 -> 2,0.3009500000000001,0.30094999999999983,0.30095,0.3009500000000001,0.3009500000000001,1.2719202621569003e-16,86.67,86.67,86.67,86.67,86.67,0.0,32.570000000000014,32.57000000000001,32.57000000000001,32.57000000000001,32.57000000000001,5.0242958677880805e-15,72.7,56.41,66.92999999999999,69.305,56.41,6.498480591646022
1 -> 2,0.3009500000000001,0.30094999999999983,0.30095,0.3009500000000001,0.3009500000000001,1.2719202621569003e-16,86.67,86.67,86.67,86.67,86.67,0.0,32.570000000000014,32.57000000000001,32.57000000000001,32.57000000000001,32.57000000000001,5.0242958677880805e-15,69.51,41.93,56.837500000000006,57.955,41.93,10.38628272049245
1 -> 2,0.3009500000000001,0.30094999999999983,0.30095,0.3009500000000001,0.3009500000000001,1.2719202621569003e-16,86.67,86.67,86.67,86.67,86.67,0.0,32.570000000000014,32.57000000000001,32.57000000000001,32.57000000000001,32.57000000000001,5.0242958677880805e-15,69.51,41.93,56.837500000000006,57.955,41.93,10.38628272049245
1 -> 2,0.3009500000000001,0.30094999999999983,0.30095,0.3009500000000001,0.3009500000000001,1.2719202621569003e-16,86.67,86.67,86.67,86.67,86.67,0.0,32.570000000000014,32.57000000000001,32.57000000000001,32.57000000000001,32.57000000000001,5.0242958677880805e-15,30.76,10.8,19.3675,17.955,10.8,7.575610123943814
1 -> 2,0.3009500000000001,0.30094999999999983,0.30095,0.3009500000000001,0.3009500000000001,1.2719202621569003e-16,86.67,86.67,86.67,86.67,86.67,0.0,32.570000000000014,32.57000000000001,32.57000000000001,32.57000000000001,32.57000000000001,5.0242958677880805e-15,30.76,10.8,19.3675,17.955,10.8,7.575610123943814
1 -> 2,0.3035110000000001,0.30351099999999986,0.303511,0.303511,0.3035110000000001,1.0007415106216802e-16,86.67,86.67,86.67,86.67,86.67,0.0,32.570000000000014,32.57000000000001,32.57000000000001,32.57000000000001,32.57000000000001,5.0242958677880805e-15,9.01,3.32,6.6125,7.0600000000000005,3.32,2.1447770863192286
1 -> 2,0.3035110000000001,0.30351099999999986,0.303511,0.303511,0.3035110000000001,1.0007415106216802e-16,86.67,86.67,86.67,86.67,86.67,0.0,32.570000000000014,32.57000000000001,32.57000000000001,32.57000000000001,32.57000000000001,5.0242958677880805e-15,9.01,3.32,6.6125,7.0600000000000005,3.32,2.1447770863192286
1 -> 2,0.3035110000000001,0.30351099999999986,0.303511,0.303511,0.3035110000000001,1.0007415106216802e-16,86.67,86.67,86.67,86.67,86.67,0.0,32.570000000000014,32.57000000000001,32.57000000000001,32.57000000000001,32.57000000000001,5.0242958677880805e-15,-0.73,-13.02,-7.135,-7.395,-13.02,4.6073012708091925
1 -> 2,0.3035110000000001,0.30351099999999986,0.303511,0.303511,0.3035110000000001,1.0007415106216802e-16,86.67,86.67,86.67,86.67,86.67,0.0,32.570000000000014,32.57000000000001,32.57000000000001,32.57000000000001,32.57000000000001,5.0242958677880805e-15,-0.73,-13.02,-7.135,-7.395,-13.02,4.6073012708091925
1 -> 2,0.3035110000000001,0.30351099999999986,0.303511,0.303511,0.3035110000000001,1.0007415106216802e-16,86.67,86.67,86.67,86.67,86.67,0.0,32.570000000000014,32.57000000000001,32.57000000000001,32.57000000000001,32.57000000000001,5.0242958677880805e-15,-15.73,-24.07,-19.615000000000002,-19.33,-24.07,3.0975595232376083
1 -> 2,0.3035110000000001,0.30351099999999986,0.303511,0.303511,0.3035110000000001,1.0007415106216802e-16,86.67,86.67,86.67,86.67,86.67,0.0,32.570000000000014,32.57000000000001,32.57000000000001,32.57000000000001,32.57000000000001,5.0242958677880805e-15,-15.73,-24.07,-19.615000000000002,-19.33,-24.07,3.0975595232376083
1 -> 2,0.3035110000000001,0.30351099999999986,0.303511,0.303511,0.3035110000000001,1.0007415106216802e-16,86.67,86.67,86.67,86.67,86.67,0.0,32.570000000000014,32.57000000000001,32.57000000000001,32.57000000000001,32.57000000000001,5.0242958677880805e-15,-28.93,-53.13,-40.33,-39.629999999999995,-53.13,9.067714706584015
1 -> 2,0.3035110000000001,0.30351099999999986,0.303511,0.303511,0.3035110000000001,1.0007415106216802e-16,86.67,86.67,86.67,86.67,86.67,0.0,32.570000000000014,32.57000000000001,32.57000000000001,32.57000000000001,32.57000000000001,5.0242958677880805e-15,-28.93,-53.13,-40.33,-39.629999999999995,-53.13,9.067714706584015
1 -> 2,0.3022300000000001,0.30222999999999994,0.30223,0.30223,0.30222999999999994,8.777083671441753e-17,87.25,87.25,87.25,87.25,87.25,0.0,32.570000000000014,32.57000000000001,32.57000000000001,32.57000000000001,32.57000000000001,5.0242958677880805e-15,-62.22,-70.6,-66.78,-67.15,-70.6,3.2239959677394125
1 -> 2,0.3022300000000001,0.30222999999999994,0.30223,0.30223,0.30222999999999994,8.777083671441753e-17,87.25,87.25,87.25,87.25,87.25,0.0,32.570000000000014,32.57000000000001,32.57000000000001,32.57000000000001,32.57000000000001,5.0242958677880805e-15,-62.22,-70.6,-66.78,-67.15,-70.6,3.2239959677394125
1 -> 2,0.3022300000000001,0.30222999999999994,0.30223,0.30223,0.30222999999999994,8.777083671441753e-17,87.25,87.25,87.25,87.25,87.25,0.0,32.570000000000014,32.57000000000001,32.57000000000001,32.57000000000001,32.57000000000001,5.0242958677880805e-15,11.71,-52.74,-21.4675,-22.419999999999998,-52.74,24.167966789740504
1 -> 2,0.3022300000000001,0.30222999999999994,0.30223,0.30223,0.30222999999999994,8.777083671441753e-17,87.25,87.25,87.25,87.25,87.25,0.0,32.570000000000014,32.57000000000001,32.57000000000001,32.57000000000001,32.57000000000001,5.0242958677880805e-15,11.71,-52.74,-21.4675,-22.419999999999998,-52.74,24.167966789740504
1 -> 2,0.3022300000000001,0.30222999999999994,0.30223,0.30223,0.30222999999999994,8.777083671441753e-17,87.25,87.25,87.25,87.25,87.25,0.0,32.570000000000014,32.57000000000001,32.57000000000001,32.57000000000001,32.57000000000001,5.0242958677880805e-15,63.38,31.82,50.11,52.620000000000005,31.82,12.020014559059403
1 -> 2,0.3022300000000001,0.30222999999999994,0.30223,0.30223,0.30222999999999994,8.777083671441753e-17,87.25,87.25,87.25,87.25,87.25,0.0,32.570000000000014,32.57000000000001,32.57000000000001,32.57000000000001,32.57000000000001,5.0242958677880805e-15,63.38,31.82,50.11,52.620000000000005,31.82,12.020014559059403
1 -> 2,0.3022300000000001,0.30222999999999994,0.30223,0.30223,0.30222999999999994,8.777083671441753e-17,87.25,87.25,87.25,87.25,87.25,0.0,32.570000000000014,32.57000000000001,32.57000000000001,32.57000000000001,32.57000000000001,5.0242958677880805e-15,64.44,45.03,56.372499999999995,58.010000000000005,45.03,7.446701870627022
1 -> 2,0.3022300000000001,0.30222999999999994,0.30223,0.30223,0.30222999999999994,8.777083671441753e-17,87.25,87.25,87.25,87.25,87.25,0.0,32.570000000000014,32.57000000000001,32.57000000000001,32.57000000000001,32.57000000000001,5.0242958677880805e-15,64.44,45.03,56.372499999999995,58.010000000000005,45.03,7.446701870627022
1 -> 2,0.3035110000000001,0.30351099999999986,0.303511,0.303511,0.3035110000000001,1.0007415106216802e-16,87.25,87.25,87.25,87.25,87.25,0.0,32.570000000000014,32.57000000000001,32.57000000000001,32.57000000000001,32.57000000000001,5.0242958677880805e-15,33.97,8.57,20.0475,18.825,8.57,9.581102167809297
1 -> 2,0.3035110000000001,0.30351099999999986,0.303511,0.303511,0.3035110000000001,1.0007415106216802e-16,87.25,87.25,87.25,87.25,87.25,0.0,32.570000000000014,32.57000000000001,32.57000000000001,32.57000000000001,32.57000000000001,5.0242958677880805e-15,33.97,8.57,20.0475,18.825,8.57,9.581102167809297
1 -> 2,0.3035110000000001,0.30351099999999986,0.303511,0.303511,0.3035110000000001,1.0007415106216802e-16,87.25,87.25,87.25,87.25,87.25,0.0,32.570000000000014,32.57000000000001,32.57000000000001,32.57000000000001,32.57000000000001,5.0242958677880805e-15,5.55,2.61,4.1125,4.1450000000000005,2.61,1.060669010577758
1 -> 2,0.3035110000000001,0.30351099999999986,0.303511,0.303511,0.3035110000000001,1.0007415106216802e-16,87.25,87.25,87.25,87.25,87.25,0.0,32.570000000000014,32.57000000000001,32.57000000000001,32.57000000000001,32.57000000000001,5.0242958677880805e-15,5.55,2.61,4.1125,4.1450000000000005,2.61,1.060669010577758
1 -> 2,0.3035110000000001,0.30351099999999986,0.303511,0.303511,0.3035110000000001,1.0007415106216802e-16,87.25,87.25,87.25,87.25,87.25,0.0,32.570000000000014,32.57000000000001,32.57000000000001,32.57000000000001,32.57000000000001,5.0242958677880805e-15,0.17,-10.42,-5.15,-5.175,-10.42,3.974386745146979
1 -> 2,0.3035110000000001,0.30351099999999986,0.303511,0.303511,0.3035110000000001,1.0007415106216802e-16,87.25,87.25,87.25,87.25,87.25,0.0,32.570000000000014,32.57000000000001,32.57000000000001,32.57000000000001,32.57000000000001,5.0242958677880805e-15,0.17,-10.42,-5.15,-5.175,-10.42,3.974386745146979
1 -> 2,0.3035110000000001,0.30351099999999986,0.303511,0.303511,0.3035110000000001,1.0007415106216802e-16,87.25,87.25,87.25,87.25,87.25,0.0,32.570000000000014,32.57000000000001,32.57000000000001,32.57000000000001,32.57000000000001,5.0242958677880805e-15,-12.95,-18.88,-15.779999999999998,-15.645,-18.88,2.1861724543137027
1 -> 2,0.3035110000000001,0.30351099999999986,0.303511,0.303511,0.3035110000000001,1.0007415106216802e-16,87.25,87.25,87.25,87.25,87.25,0.0,32.570000000000014,32.57000000000001,32.57000000000001,32.57000000000001,32.57000000000001,5.0242958677880805e-15,-12.95,-18.88,-15.779999999999998,-15.645,-18.88,2.1861724543137027
1 -> 2,0.3035110000000001,0.30351099999999986,0.303511,0.303511,0.3035110000000001,1.0007415106216802e-16,87.25,87.25,87.25,87.25,87.25,0.0,32.570000000000014,32.57000000000001,32.57000000000001,32.57000000000001,32.57000000000001,5.0242958677880805e-15,-22.63,-44.44,-32.7475,-31.96,-44.44,8.187558778414967
1 -> 2,0.3035110000000001,0.30351099999999986,0.303511,0.303511,0.3035110000000001,1.0007415106216802e-16,87.25,87.25,87.25,87.25,87.25,0.0,32.570000000000014,32.57000000000001,32.57000000000001,32.57000000000001,32.57000000000001,5.0242958677880805e-15,-22.63,-44.44,-32.7475,-31.96,-44.44,8.187558778414967
1 -> 2,0.3035110000000001,0.30351099999999986,0.303511,0.303511,0.3035110000000001,1.0007415106216802e-16,87.25,87.25,87.25,87.25,87.25,0.0,32.570000000000014,32.57000000000001,32.57000000000001,32.57000000000001,32.57000000000001,5.0242958677880805e-15,-53.21,-62.75,-58.837500000000006,-59.695,-62.75,3.489751961099814
1 -> 2,0.3035110000000001,0.30351099999999986,0.303511,0.303511,0.3035110000000001,1.0007415106216802e-16,87.25,87.25,87.25,87.25,87.25,0.0,32.570000000000014,32.57000000000001,32.57000000000001,32.57000000000001,32.57000000000001,5.0242958677880805e-15,-53.21,-62.75,-58.837500000000006,-59.695,-62.75,3.489751961099814
1 -> 2,0.3035110000000001,0.30351099999999986,0.303511,0.303511,0.3035110000000001,1.0007415106216802e-16,87.25,87.25,87.25,87.25,87.25,0.0,32.570000000000014,32.57000000000001,32.57000000000001,32.57000000000001,32.57000000000001,5.0242958677880805e-15,9.91,-48.96,-20.772500000000004,-22.020000000000003,-48.96,22.09110836400021
1 -> 2,0.3035110000000001,0.30351099999999986,0.303511,0.303511,0.3035110000000001,1.0007415106216802e-16,87.25,87.25,87.25,87.25,87.25,0.0,32.570000000000014,32.57000000000001,32.57000000000001,32.57000000000001,32.57000000000001,5.0242958677880805e-15,9.91,-48.96,-20.772500000000004,-22.020000000000003,-48.96,22.09110836400021
1 -> 2,0.3035110000000001,0.30351099999999986,0.303511,0.303511,0.3035110000000001,1.0007415106216802e-16,87.25,87.25,87.25,87.25,87.25,0.0,32.570000000000014,32.57000000000001,32.57000000000001,32.57000000000001,32.57000000000001,5.0242958677880805e-15,61.54,29.54,48.0075,50.475,29.54,12.178656278506262
1 -> 2,0.3035110000000001,0.30351099999999986,0.303511,0.303511,0.3035110000000001,1.0007415106216802e-16,87.25,87.25,87.25,87.25,87.25,0.0,32.570000000000014,32.57000000000001,32.57000000000001,32.57000000000001,32.57000000000001,5.0242958677880805e-15,61.54,29.54,48.0075,50.475,29.54,12.178656278506262
1 -> 2,0.3022300000000001,0.30222999999999994,0.30223,0.30223,0.30222999999999994,8.777083671441753e-17,87.25,87.25,87.25,87.25,87.25,0.0,32.570000000000014,32.57000000000001,32.57000000000001,32.57000000000001,32.57000000000001,5.0242958677880805e-15,62.7,43.39,54.6875,56.33,43.39,7.410706359720375
1 -> 2,0.3022300000000001,0.30222999999999994,0.30223,0.30223,0.30222999999999994,8.777083671441753e-17,87.25,87.25,87.25,87.25,87.25,0.0,32.570000000000014,32.57000000000001,32.57000000000001,32.57000000000001,32.57000000000001,5.0242958677880805e-15,62.7,43.39,54.6875,56.33,43.39,7.410706359720375
1 -> 2,0.3022300000000001,0.30222999999999994,0.30223,0.30223,0.30222999999999994,8.777083671441753e-17,87.25,87.25,87.25,87.25,87.25,0.0,32.570000000000014,32.57000000000001,32.57000000000001,32.57000000000001,32.57000000000001,5.0242958677880805e-15,32.3,6.89,18.352500000000003,17.11,6.89,9.588134268459113
1 -> 2,0.3022300000000001,0.30222999999999994,0.30223,0.30223,0.30222999999999994,8.777083671441753e-17,87.25,87.25,87.25,87.25,87.25,0.0,32.570000000000014,32.57000000000001,32.57000000000001,32.57000000000001,32.57000000000001,5.0242958677880805e-15,32.3,6.89,18.352500000000003,17.11,6.89,9.588134268459113
1 -> 2,0.3022300000000001,0.30222999999999994,0.30223,0.30223,0.30222999999999994,8.777083671441753e-17,87.25,87.25,87.25,87.25,87.25,0.0,32.570000000000014,32.57000000000001,32.57000000000001,32.57000000000001,32.57000000000001,5.0242958677880805e-15,4.0,1.29,2.7074999999999996,2.77,1.29,0.9763036156852026
1 -> 2,0.3022300000000001,0.30222999999999994,0.30223,0.30223,0.30222999999999994,8.777083671441753e-17,87.25,87.25,87.25,87.25,87.25,0.0,32.570000000000014,32.57000000000001,32.57000000000001,32.57000000000001,32.57000000000001,5.0242958677880805e-15,4.0,1.29,2.7074999999999996,2.77,1.29,0.9763036156852026
1 -> 2,0.3022300000000001,0.30222999999999994,0.30223,0.30223,0.30222999999999994,8.777083671441753e-17,87.25,87.25,87.25,87.25,87.25,0.0,32.570000000000014,32.57000000000001,32.57000000000001,32.57000000000001,32.57000000000001,5.0242958677880805e-15,-1.18,-11.85,-6.522499999999999,-6.529999999999999,-11.85,4.002151764988429
1 -> 2,0.3022300000000001,0.30222999999999994,0.30223,0.30223,0.30222999999999994,8.777083671441753e-17,87.25,87.25,87.25,87.25,87.25,0.0,32.570000000000014,32.57000000000001,32.57000000000001,32.57000000000001,32.57000000000001,5.0242958677880805e-15,-1.18,-11.85,-6.522499999999999,-6.529999999999999,-11.85,4.002151764988429
1 -> 2,0.3022300000000001,0.30222999999999994,0.30223,0.30223,0.30222999999999994,8.777083671441753e-17,89.6,89.6,89.6,89.6,89.6,0.0,32.570000000000014,32.57000000000001,32.57000000000001,32.57000000000001,32.57000000000001,5.0242958677880805e-15,-14.63,-22.46,-18.332500000000003,-18.119999999999997,-22.46,2.901175408347451
1 -> 2,0.3022300000000001,0.30222999999999994,0.30223,0.30223,0.30222999999999994,8.777083671441753e-17,89.6,89.6,89.6,89.6,89.6,0.0,32.570000000000014,32.57000000000001,32.57000000000001,32.57000000000001,32.57000000000001,5.0242958677880805e-15,-14.63,-22.46,-18.332500000000003,-18.119999999999997,-22.46,2.901175408347451
1 -> 2,0.3022300000000001,0.30222999999999994,0.30223,0.30223,0.30222999999999994,8.777083671441753e-17,89.6,89.6,89.6,89.6,89.6,0.0,32.570000000000014,32.57000000000001,32.57000000000001,32.57000000000001,32.57000000000001,5.0242958677880805e-15,-27.0,-50.29,-37.9775,-37.31,-50.29,8.732042644765313
1 -> 2,0.3022300000000001,0.30222999999999994,0.30223,0.30223,0.30222999999999994,8.777083671441753e-17,89.6,89.6,89.6,89.6,89.6,0.0,32.570000000000014,32.57000000000001,32.57000000000001,32.57000000000001,32.57000000000001,5.0242958677880805e-15,-27.0,-50.29,-37.9775,-37.31,-50.29,8.732042644765313
1 -> 2,0.3022300000000001,0.30222999999999994,0.30223,0.30223,0.30222999999999994,8.777083671441753e-17,89.6,89.6,89.6,89.6,89.6,0.0,32.570000000000014,32.57000000000001,32.57000000000001,32.57000000000001,32.57000000000001,5.0242958677880805e-15,-58.84,-66.29,-62.82,-63.075,-66.29,2.950398278199065
1 -> 2,0.3022300000000001,0.30222999999999994,0.30223,0.30223,0.30222999999999994,8.777083671441753e-17,89.6,89.6,89.6,89.6,89.6,0.0,32.570000000000014,32.57000000000001,32.57000000000001,32.57000000000001,32.57000000000001,5.0242958677880805e-15,-58.84,-66.29,-62.82,-63.075,-66.29,2.950398278199065
1 -> 2,0.3022300000000001,0.30222999999999994,0.30223,0.30223,0.30222999999999994,8.777083671441753e-17,89.6,89.6,89.6,89.6,89.6,0.0,32.570000000000014,32.57000000000001,32.57000000000001,32.57000000000001,32.57000000000001,5.0242958677880805e-15,13.08,-49.17,-19.132500000000004,-20.22,-49.17,23.339937205356833
1 -> 2,0.3022300000000001,0.30222999999999994,0.30223,0.30223,0.30222999999999994,8.777083671441753e-17,89.6,89.6,89.6,89.6,89.6,0.0,32.570000000000014,32.57000000000001,32.57000000000001,32.57000000000001,32.57000000000001,5.0242958677880805e-15,13.08,-49.17,-19.132500000000004,-20.22,-49.17,23.339937205356833
1 -> 2,0.3035110000000001,0.30351099999999986,0.303511,0.303511,0.3035110000000001,1.0007415106216802e-16,89.6,89.6,89.6,89.6,89.6,0.0,32.570000000000014,32.57000000000001,32.57000000000001,32.57000000000001,32.57000000000001,5.0242958677880805e-15,65.59,33.33,52.12,54.78,33.33,12.320637158848564
1 -> 2,0.3035110000000001,0.30351099999999986,0.303511,0.303511,0.3035110000000001,1.0007415106216802e-16,89.6,89.6,89.6,89.6,89.6,0.0,32.570000000000014,32.57000000000001,32.57000000000001,32.57000000000001,32.57000000000001,5.0242958677880805e-15,65.59,33.33,52.12,54.78,33.33,12.320637158848564
1 -> 2,0.3035110000000001,0.30351099999999986,0.303511,0.303511,0.3035110000000001,1.0007415106216802e-16,89.6,89.6,89.6,89.6,89.6,0.0,32.570000000000014,32.57000000000001,32.57000000000001,32.57000000000001,32.57000000000001,5.0242958677880805e-15,65.84,42.28,55.68,57.3,42.28,8.97424370072487
1 -> 2,0.3035110000000001,0.30351099999999986,0.303511,0.303511,0.3035110000000001,1.0007415106216802e-16,89.6,89.6,89.6,89.6,89.6,0.0,32.570000000000014,32.57000000000001,32.57000000000001,32.57000000000001,32.57000000000001,5.0242958677880805e-15,65.84,42.28,55.68,57.3,42.28,8.97424370072487
1 -> 2,0.3035110000000001,0.30351099999999986,0.303511,0.303511,0.3035110000000001,1.0007415106216802e-16,89.6,89.6,89.6,89.6,89.6,0.0,32.570000000000014,32.57000000000001,32.57000000000001,32.57000000000001,32.57000000000001,5.0242958677880805e-15,30.42,5.51,16.5775,15.190000000000001,5.51,9.41302920159074
1 -> 2,0.3035110000000001,0.30351099999999986,0.303511,0.303511,0.3035110000000001,1.0007415106216802e-16,89.6,89.6,89.6,89.6,89.6,0.0,32.570000000000014,32.57000000000001,32.57000000000001,32.57000000000001,32.57000000000001,5.0242958677880805e-15,30.42,5.51,16.5775,15.190000000000001,5.51,9.41302920159074
1 -> 2,0.3035110000000001,0.30351099999999986,0.303511,0.303511,0.3035110000000001,1.0007415106216802e-16,89.6,89.6,89.6,89.6,89.6,0.0,32.570000000000014,32.57000000000001,32.57000000000001,32.57000000000001,32.57000000000001,5.0242958677880805e-15,2.93,-0.0,1.6075000000000002,1.75,0.0,1.0669670800919773
1 -> 2,0.3035110000000001,0.30351099999999986,0.303511,0.303511,0.3035110000000001,1.0007415106216802e-16,89.6,89.6,89.6,89.6,89.6,0.0,32.570000000000014,32.57000000000001,32.57000000000001,32.57000000000001,32.57000000000001,5.0242958677880805e-15,2.93,-0.0,1.6075000000000002,1.75,0.0,1.0669670800919773
1 -> 2,0.3035110000000001,0.30351099999999986,0.303511,0.303511,0.3035110000000001,1.0007415106216802e-16,89.6,89.6,89.6,89.6,89.6,0.0,32.570000000000014,32.57000000000001,32.57000000000001,32.57000000000001,32.57000000000001,5.0242958677880805e-15,-2.74,-14.26,-8.51,-8.52,-14.26,4.31848931919485
1 -> 2,0.3035110000000001,0.30351099999999986,0.303511,0.303511,0.3035110000000001,1.0007415106216802e-16,89.6,89.6,89.6,89.6,89.6,0.0,32.570000000000014,32.57000000000001,32.57000000000001,32.57000000000001,32.57000000000001,5.0242958677880805e-15,-2.74,-14.26,-8.51,-8.52,-14.26,4.31848931919485
1 -> 2,0.3035110000000001,0.30351099999999986,0.303511,0.303511,0.3035110000000001,1.0007415106216802e-16,89.6,89.6,89.6,89.6,89.6,0.0,32.570000000000014,32.57000000000001,32.57000000000001,32.57000000000001,32.57000000000001,5.0242958677880805e-15,-17.32,-25.82,-21.375,-21.18,-25.82,3.148694173780617
1 -> 2,0.3035110000000001,0.30351099999999986,0.303511,0.303511,0.3035110000000001,1.0007415106216802e-16,89.6,89.6,89.6,89.6,89.6,0.0,32.570000000000014,32.57000000000001,32.57000000000001,32.57000000000001,32.57000000000001,5.0242958677880805e-15,-17.32,-25.82,-21.375,-21.18,-25.82,3.148694173780617
1 -> 2,0.3035110000000001,0.30351099999999986,0.303511,0.303511,0.3035110000000001,1.0007415106216802e-16,89.6,89.6,89.6,89.6,89.6,0.0,32.570000000000014,32.57000000000001,32.57000000000001,32.57000000000001,32.57000000000001,5.0242958677880805e-15,-30.54,-54.14,-41.7,-41.06,-54.14,8.84711252330386
1 -> 2,0.3035110000000001,0.30351099999999986,0.303511,0.303511,0.3035110000000001,1.0007415106216802e-16,89.6,89.6,89.6,89.6,89.6,0.0,32.570000000000014,32.57000000000001,32.57000000000001,32.57000000000001,32.57000000000001,5.0242958677880805e-15,-30.54,-54.14,-41.7,-41.06,-54.14,8.84711252330386
1 -> 2,0.3035110000000001,0.30351099999999986,0.303511,0.303511,0.3035110000000001,1.0007415106216802e-16,89.6,89.6,89.6,89.6,89.6,0.0,32.570000000000014,32.57000000000001,32.57000000000001,32.57000000000001,32.57000000000001,5.0242958677880805e-15,-61.94,-68.47,-65.2575,-65.31,-68.47,3.0326669368725616
1 -> 2,0.3035110000000001,0.30351099999999986,0.303511,0.303511,0.3035110000000001,1.0007415106216802e-16,89.6,89.6,89.6,89.6,89.6,0.0,32.570000000000014,32.57000000000001,32.57000000000001,32.57000000000001,32.57000000000001,5.0242958677880805e-15,-61.94,-68.47,-65.2575,-65.31,-68.47,3.0326669368725616
1 -> 2,0.3022300000000001,0.30222999999999994,0.30223,0.30223,0.30222999999999994,8.777083671441753e-17,89.6,89.6,89.6,89.6,89.6,0.0,32.570000000000014,32.57000000000001,32.57000000000001,32.57000000000001,32.57000000000001,5.0242958677880805e-15,17.57,-48.16,-16.112499999999997,-16.93,-48.16,24.631940011903243
1 -> 2,0.3022300000000001,0.30222999999999994,0.30223,0.30223,0.30222999999999994,8.777083671441753e-17,89.6,89.6,89.6,89.6,89.6,0.0,32.570000000000014,32.57000000000001,32.57000000000001,32.57000000000001,32.57000000000001,5.0242958677880805e-15,17.57,-48.16,-16.112499999999997,-16.93,-48.16,24.631940011903243
1 -> 2,0.3022300000000001,0.30222999999999994,0.30223,0.30223,0.30222999999999994,8.777083671441753e-17,89.6,89.6,89.6,89.6,89.6,0.0,32.570000000000014,32.57000000000001,32.57000000000001,32.57000000000001,32.57000000000001,5.0242958677880805e-15,69.08,37.78,56.025000000000006,58.620000000000005,37.78,11.946349860940787
1 -> 2,0.3022300000000001,0.30222999999999994,0.30223,0.30223,0.30222999999999994,8.777083671441753e-17,89.6,89.6,89.6,89.6,89.6,0.0,32.570000000000014,32.57000000000001,32.57000000000001,32.57000000000001,32.57000000000001,5.0242958677880805e-15,69.08,37.78,56.025000000000006,58.620000000000005,37.78,11.946349860940787
1 -> 2,0.3022300000000001,0.30222999999999994,0.30223,0.30223,0.30222999999999994,8.777083671441753e-17,89.6,89.6,89.6,89.6,89.6,0.0,32.570000000000014,32.57000000000001,32.57000000000001,32.57000000000001,32.57000000000001,5.0242958677880805e-15,69.57,48.11,60.415000000000006,61.989999999999995,48.11,8.190135835259385
1 -> 2,0.3022300000000001,0.30222999999999994,0.30223,0.30223,0.30222999999999994,8.777083671441753e-17,89.6,89.6,89.6,89.6,89.6,0.0,32.570000000000014,32.57000000000001,32.57000000000001,32.57000000000001,32.57000000000001,5.0242958677880805e-15,69.57,48.11,60.415000000000006,61.989999999999995,48.11,8.190135835259385
1 -> 2,0.3022300000000001,0.30222999999999994,0.30223,0.30223,0.30222999999999994,8.777083671441753e-17,89.6,89.6,89.6,89.6,89.6,0.0,32.570000000000014,32.57000000000001,32.57000000000001,32.57000000000001,32.57000000000001,5.0242958677880805e-15,36.87,12.2,23.2925,22.05,12.2,9.304104940831223
1 -> 2,0.3022300000000001,0.30222999999999994,0.30223,0.30223,0.30222999999999994,8.777083671441753e-17,89.6,89.6,89.6,89.6,89.6,0.0,32.570000000000014,32.57000000000001,32.57000000000001,32.57000000000001,32.57000000000001,5.0242958677880805e-15,36.87,12.2,23.2925,22.05,12.2,9.304104940831223
1 -> 2,0.3009500000000001,0.30094999999999983,0.30095,0.3009500000000001,0.3009500000000001,1.2719202621569003e-16,110.17,110.17,110.17,110.17,110.17,0.0,32.570000000000014,32.57000000000001,32.57000000000001,32.57000000000001,32.57000000000001,5.0242958677880805e-15,9.17,4.55,6.9875,7.115,4.55,1.6933159037816894
1 -> 2,0.3009500000000001,0.30094999999999983,0.30095,0.3009500000000001,0.3009500000000001,1.2719202621569003e-16,110.17,110.17,110.17,110.17,110.17,0.0,32.570000000000014,32.57000000000001,32.57000000000001,32.57000000000001,32.57000000000001,5.0242958677880805e-15,9.17,4.55,6.9875,7.115,4.55,1.6933159037816894
1 -> 2,0.3009500000000001,0.30094999999999983,0.30095,0.3009500000000001,0.3009500000000001,1.2719202621569003e-16,110.17,110.17,110.17,110.17,110.17,0.0,32.570000000000014,32.57000000000001,32.57000000000001,32.57000000000001,32.57000000000001,5.0242958677880805e-15,1.4,-10.89,-4.7925,-4.84,-10.89,4.606036121221805
1 -> 2,0.3009500000000001,0.30094999999999983,0.30095,0.3009500000000001,0.3009500000000001,1.2719202621569003e-16,110.17,110.17,110.17,110.17,110.17,0.0,32.570000000000014,32.57000000000001,32.57000000000001,32.57000000000001,32.57000000000001,5.0242958677880805e-15,1.4,-10.89,-4.7925,-4.84,-10.89,4.606036121221805
1 -> 2,0.3009500000000001,0.30094999999999983,0.30095,0.3009500000000001,0.3009500000000001,1.2719202621569003e-16,110.17,110.17,110.17,110.17,110.17,0.0,32.570000000000014,32.57000000000001,32.57000000000001,32.57000000000001,32.57000000000001,5.0242958677880805e-15,-13.97,-22.18,-17.845,-17.615,-22.18,3.0358730210600045
1 -> 2,0.3009500000000001,0.30094999999999983,0.30095,0.3009500000000001,0.3009500000000001,1.2719202621569003e-16,110.17,110.17,110.17,110.17,110.17,0.0,32.570000000000014,32.57000000000001,32.57000000000001,32.57000000000001,32.57000000000001,5.0242958677880805e-15,-13.97,-22.18,-17.845,-17.615,-22.18,3.0358730210600045
1 -> 2,0.3009500000000001,0.30094999999999983,0.30095,0.3009500000000001,0.3009500000000001,1.2719202621569003e-16,110.17,110.17,110.17,110.17,110.17,0.0,32.570000000000014,32.57000000000001,32.57000000000001,32.57000000000001,32.57000000000001,5.0242958677880805e-15,-27.37,-54.68,-40.33,-39.635,-54.68,10.250129267477556
1 -> 2,0.3009500000000001,0.30094999999999983,0.30095,0.3009500000000001,0.3009500000000001,1.2719202621569003e-16,110.17,110.17,110.17,110.17,110.17,0.0,32.570000000000014,32.57000000000001,32.57000000000001,32.57000000000001,32.57000000000001,5.0242958677880805e-15,-27.37,-54.68,-40.33,-39.635,-54.68,10.250129267477556
1 -> 2,0.3009500000000001,0.30094999999999983,0.30095,0.3009500000000001,0.3009500000000001,1.2719202621569003e-16,110.17,110.17,110.17,110.17,110.17,0.0,32.570000000000014,32.57000000000001,32.57000000000001,32.57000000000001,32.57000000000001,5.0242958677880805e-15,-58.33,-68.47,-64.36749999999999,-65.33500000000001,-68.47,3.91967074510092
1 -> 2,0.3009500000000001,0.30094999999999983,0.30095,0.3009500000000001,0.3009500000000001,1.2719202621569003e-16,110.17,110.17,110.17,110.17,110.17,0.0,32.570000000000014,32.57000000000001,32.57000000000001,32.57000000000001,32.57000000000001,5.0242958677880805e-15,-58.33,-68.47,-64.36749999999999,-65.33500000000001,-68.47,3.91967074510092
1 -> 2,0.3009500000000001,0.30094999999999983,0.30095,0.3009500000000001,0.3009500000000001,1.2719202621569003e-16,110.17,110.17,110.17,110.17,110.17,0.0,32.570000000000014,32.57000000000001,32.57000000000001,32.57000000000001,32.57000000000001,5.0242958677880805e-15,23.1,-42.55,-10.007499999999999,-10.29,-42.55,24.5839656839575
1 -> 2,0.3009500000000001,0.30094999999999983,0.30095,0.3009500000000001,0.3009500000000001,1.2719202621569003e-16,110.17,110.17,110.17,110.17,110.17,0.0,32.570000000000014,32.57000000000001,32.57000000000001,32.57000000000001,32.57000000000001,5.0242958677880805e-15,23.1,-42.55,-10.007499999999999,-10.29,-42.55,24.5839656839575
1 -> 2,0.3009500000000001,0.30094999999999983,0.30095,0.3009500000000001,0.3009500000000001,1.2719202621569003e-16,110.17,110.17,110.17,110.17,110.17,0.0,32.570000000000014,32.57000000000001,32.57000000000001,32.57000000000001,32.57000000000001,5.0242958677880805e-15,69.38,41.78,58.0325,60.485,41.78,10.570991852707103
1 -> 2,0.3009500000000001,0.30094999999999983,0.30095,0.3009500000000001,0.3009500000000001,1.2719202621569003e-16,110.17,110.17,110.17,110.17,110.17,0.0,32.570000000000014,32.57000000000001,32.57000000000001,32.57000000000001,32.57000000000001,5.0242958677880805e-15,69.38,41.78,58.0325,60.485,41.78,10.570991852707103
1 -> 2,0.3009500000000001,0.30094999999999983,0.30095,0.3009500000000001,0.3009500000000001,1.2719202621569003e-16,110.17,110.17,110.17,110.17,110.17,0.0,32.570000000000014,32.57000000000001,32.57000000000001,32.57000000000001,32.57000000000001,5.0242958677880805e-15,69.11,46.46,59.220000000000006,60.655,46.46,8.607400885284708
1 -> 2,0.3009500000000001,0.30094999999999983,0.30095,0.3009500000000001,0.3009500000000001,1.2719202621569003e-16,110.17,110.17,110.17,110.17,110.17,0.0,32.570000000000014,32.57000000000001,32.57000000000001,32.57000000000001,32.57000000000001,5.0242958677880805e-15,69.11,46.46,59.220000000000006,60.655,46.46,8.607400885284708
1 -> 2,0.3009500000000001,0.30094999999999983,0.30095,0.3009500000000001,0.3009500000000001,1.2719202621569003e-16,110.17,110.17,110.17,110.17,110.17,0.0,32.570000000000014,32.57000000000001,32.57000000000001,32.57000000000001,32.57000000000001,5.0242958677880805e-15,35.65,13.93,23.5375,22.285,13.93,8.203131642854453
1 -> 2,0.3009500000000001,0.30094999999999983,0.30095,0.3009500000000001,0.3009500000000001,1.2719202621569003e-16,110.17,110.17,110.17,110.17,110.17,0.0,32.570000000000014,32.57000000000001,32.57000000000001,32.57000000000001,32.57000000000001,5.0242958677880805e-15,35.65,13.93,23.5375,22.285,13.93,8.203131642854453
1 -> 2,0.3009500000000001,0.30094999999999983,0.30095,0.3009500000000001,0.3009500000000001,1.2719202621569003e-16,110.17,110.17,110.17,110.17,110.17,0.0,32.570000000000014,32.57000000000001,32.57000000000001,32.57000000000001,32.57000000000001,5.0242958677880805e-15,11.29,4.45,8.1775,8.485,4.45,2.545263984344256
1 -> 2,0.3009500000000001,0.30094999999999983,0.30095,0.3009500000000001,0.3009500000000001,1.2719202621569003e-16,110.17,110.17,110.17,110.17,110.17,0.0,32.570000000000014,32.57000000000001,32.57000000000001,32.57000000000001,32.57000000000001,5.0242958677880805e-15,11.29,4.45,8.1775,8.485,4.45,2.545263984344256
1 -> 2,0.3009500000000001,0.30094999999999983,0.30095,0.3009500000000001,0.3009500000000001,1.2719202621569003e-16,110.17,110.17,110.17,110.17,110.17,0.0,32.570000000000014,32.57000000000001,32.57000000000001,32.57000000000001,32.57000000000001,5.0242958677880805e-15,0.55,-10.65,-5.335,-5.62,-10.65,4.200360103610166
1 -> 2,0.3009500000000001,0.30094999999999983,0.30095,0.3009500000000001,0.3009500000000001,1.2719202621569003e-16,110.17,110.17,110.17,110.17,110.17,0.0,32.570000000000014,32.57000000000001,32.57000000000001,32.57000000000001,32.57000000000001,5.0242958677880805e-15,0.55,-10.65,-5.335,-5.62,-10.65,4.200360103610166
1 -> 2,0.3009500000000001,0.30094999999999983,0.30095,0.3009500000000001,0.3009500000000001,1.2719202621569003e-16,110.17,110.17,110.17,110.17,110.17,0.0,32.570000000000014,32.57000000000001,32.57000000000001,32.57000000000001,32.57000000000001,5.0242958677880805e-15,-13.01,-21.81,-16.9425,-16.475,-21.81,3.284763119313171
1 -> 2,0.3009500000000001,0.30094999999999983,0.30095,0.3009500000000001,0.3009500000000001,1.2719202621569003e-16,110.17,110.17,110.17,110.17,110.17,0.0,32.570000000000014,32.57000000000001,32.57000000000001,32.57000000000001,32.57000000000001,5.0242958677880805e-15,-13.01,-21.81,-16.9425,-16.475,-21.81,3.284763119313171
1 -> 2,0.3009500000000001,0.30094999999999983,0.30095,0.3009500000000001,0.3009500000000001,1.2719202621569003e-16,110.17,110.17,110.17,110.17,110.17,0.0,32.570000000000014,32.57000000000001,32.57000000000001,32.57000000000001,32.57000000000001,5.0242958677880805e-15,-27.68,-54.53,-40.6475,-40.19,-54.53,10.061265762815333
1 -> 2,0.3009500000000001,0.30094999999999983,0.30095,0.3009500000000001,0.3009500000000001,1.2719202621569003e-16,110.17,110.17,110.17,110.17,110.17,0.0,32.570000000000014,32.57000000000001,32.57000000000001,32.57000000000001,32.57000000000001,5.0242958677880805e-15,-27.68,-54.53,-40.6475,-40.19,-54.53,10.061265762815333
1 -> 2,0.3009500000000001,0.30094999999999983,0.30095,0.3009500000000001,0.3009500000000001,1.2719202621569003e-16,110.17,110.17,110.17,110.17,110.17,0.0,32.570000000000014,32.57000000000001,32.57000000000001,32.57000000000001,32.57000000000001,5.0242958677880805e-15,-57.11,-67.12,-63.1525,-64.19,-67.12,3.835553252139777
1 -> 2,0.3009500000000001,0.30094999999999983,0.30095,0.3009500000000001,0.3009500000000001,1.2719202621569003e-16,110.17,110.17,110.17,110.17,110.17,0.0,32.570000000000014,32.57000000000001,32.57000000000001,32.57000000000001,32.57000000000001,5.0242958677880805e-15,-57.11,-67.12,-63.1525,-64.19,-67.12,3.835553252139777
1 -> 2,0.3009500000000001,0.30094999999999983,0.30095,0.3009500000000001,0.3009500000000001,1.2719202621569003e-16,110.17,110.17,110.17,110.17,110.17,0.0,32.570000000000014,32.57000000000001,32.57000000000001,32.57000000000001,32.57000000000001,5.0242958677880805e-15,24.23,-41.59,-9.017500000000002,-9.355,-41.59,24.654218072167694
1 -> 2,0.3009500000000001,0.30094999999999983,0.30095,0.3009500000000001,0.3009500000000001,1.2719202621569003e-16,110.17,110.17,110.17,110.17,110.17,0.0,32.570000000000014,32.57000000000001,32.57000000000001,32.57000000000001,32.57000000000001,5.0242958677880805e-15,24.23,-41.59,-9.017500000000002,-9.355,-41.59,24.654218072167694
1 -> 2,0.3009500000000001,0.30094999999999983,0.30095,0.3009500000000001,0.3009500000000001,1.2719202621569003e-16,110.17,110.17,110.17,110.17,110.17,0.0,32.570000000000014,32.57000000000001,32.57000000000001,32.57000000000001,32.57000000000001,5.0242958677880805e-15,68.58,42.81,58.182500000000005,60.67,42.81,9.90471951899699
1 -> 2,0.3009500000000001,0.30094999999999983,0.30095,0.3009500000000001,0.3009500000000001,1.2719202621569003e-16,110.17,110.17,110.17,110.17,110.17,0.0,32.570000000000014,32.57000000000001,32.57000000000001,32.57000000000001,32.57000000000001,5.0242958677880805e-15,68.58,42.81,58.182500000000005,60.67,42.81,9.90471951899699
1 -> 2,0.3022300000000001,0.30222999999999994,0.30223,0.30223,0.30222999999999994,8.777083671441753e-17,124.86,124.86,124.86,124.86,124.86,0.0,32.55000000000001,32.549999999999976,32.55,32.55,32.55000000000001,1.6280579355608324e-14,68.07,46.51,58.705,60.120000000000005,46.51,8.18919257314175
1 -> 2,0.3022300000000001,0.30222999999999994,0.30223,0.30223,0.30222999999999994,8.777083671441753e-17,124.86,124.86,124.86,124.86,124.86,0.0,32.55000000000001,32.549999999999976,32.55,32.55,32.55000000000001,1.6280579355608324e-14,68.07,46.51,58.705,60.120000000000005,46.51,8.18919257314175
1 -> 2,0.3022300000000001,0.30222999999999994,0.30223,0.30223,0.30222999999999994,8.777083671441753e-17,124.86,124.86,124.86,124.86,124.86,0.0,32.55000000000001,32.549999999999976,32.55,32.55,32.55000000000001,1.6280579355608324e-14,35.55,11.69,22.3675,21.115000000000002,11.69,9.008702389911656
1 -> 2,0.3022300000000001,0.30222999999999994,0.30223,0.30223,0.30222999999999994,8.777083671441753e-17,124.86,124.86,124.86,124.86,124.86,0.0,32.55000000000001,32.549999999999976,32.55,32.55,32.55000000000001,1.6280579355608324e-14,35.55,11.69,22.3675,21.115000000000002,11.69,9.008702389911656
1 -> 2,0.3022300000000001,0.30222999999999994,0.30223,0.30223,0.30222999999999994,8.777083671441753e-17,124.86,124.86,124.86,124.86,124.86,0.0,32.55000000000001,32.549999999999976,32.55,32.55,32.55000000000001,1.6280579355608324e-14,9.0,4.46,6.977500000000001,7.225,4.46,1.674221834166548
1 -> 2,0.3022300000000001,0.30222999999999994,0.30223,0.30223,0.30222999999999994,8.777083671441753e-17,124.86,124.86,124.86,124.86,124.86,0.0,32.55000000000001,32.549999999999976,32.55,32.55,32.55000000000001,1.6280579355608324e-14,9.0,4.46,6.977500000000001,7.225,4.46,1.674221834166548
1 -> 2,0.3022300000000001,0.30222999999999994,0.30223,0.30223,0.30222999999999994,8.777083671441753e-17,124.86,124.86,124.86,124.86,124.86,0.0,32.55000000000001,32.549999999999976,32.55,32.55,32.55000000000001,1.6280579355608324e-14,0.92,-11.35,-5.43,-5.6450000000000005,-11.35,4.6076729484632475
1 -> 2,0.3022300000000001,0.30222999999999994,0.30223,0.30223,0.30222999999999994,8.777083671441753e-17,124.86,124.86,124.86,124.86,124.86,0.0,32.55000000000001,32.549999999999976,32.55,32.55,32.55000000000001,1.6280579355608324e-14,0.92,-11.35,-5.43,-5.6450000000000005,-11.35,4.6076729484632475
1 -> 2,0.3022300000000001,0.30222999999999994,0.30223,0.30223,0.30222999999999994,8.777083671441753e-17,124.86,124.86,124.86,124.86,124.86,0.0,32.55000000000001,32.549999999999976,32.55,32.55,32.55000000000001,1.6280579355608324e-14,-13.79,-20.34,-16.7575,-16.45,-20.34,2.426894878234325
1 -> 2,0.3022300000000001,0.30222999999999994,0.30223,0.30223,0.30222999999999994,8.777083671441753e-17,124.86,124.86,124.86,124.86,124.86,0.0,32.55000000000001,32.549999999999976,32.55,32.55,32.55000000000001,1.6280579355608324e-14,-13.79,-20.34,-16.7575,-16.45,-20.34,2.426894878234325
1 -> 2,0.3022300000000001,0.30222999999999994,0.30223,0.30223,0.30222999999999994,8.777083671441753e-17,124.86,124.86,124.86,124.86,124.86,0.0,32.55000000000001,32.549999999999976,32.55,32.55,32.55000000000001,1.6280579355608324e-14,-25.17,-50.66,-37.2625,-36.61,-50.66,9.563248336731613
1 -> 2,0.3022300000000001,0.30222999999999994,0.30223,0.30223,0.30222999999999994,8.777083671441753e-17,124.86,124.86,124.86,124.86,124.86,0.0,32.55000000000001,32.549999999999976,32.55,32.55,32.55000000000001,1.6280579355608324e-14,-25.17,-50.66,-37.2625,-36.61,-50.66,9.563248336731613
1 -> 2,0.3022300000000001,0.30222999999999994,0.30223,0.30223,0.30222999999999994,8.777083671441753e-17,124.86,124.86,124.86,124.86,124.86,0.0,32.55000000000001,32.549999999999976,32.55,32.55,32.55000000000001,1.6280579355608324e-14,-57.24,-64.54,-61.3425,-61.795,-64.54,3.178760568208938
1 -> 2,0.3022300000000001,0.30222999999999994,0.30223,0.30223,0.30222999999999994,8.777083671441753e-17,124.86,124.86,124.86,124.86,124.86,0.0,32.55000000000001,32.549999999999976,32.55,32.55,32.55000000000001,1.6280579355608324e-14,-57.24,-64.54,-61.3425,-61.795,-64.54,3.178760568208938
1 -> 2,0.3022300000000001,0.30222999999999994,0.30223,0.30223,0.30222999999999994,8.777083671441753e-17,124.86,124.86,124.86,124.86,124.86,0.0,32.55000000000001,32.549999999999976,32.55,32.55,32.55000000000001,1.6280579355608324e-14,20.39,-43.21,-12.0225,-12.635,-43.21,23.825525571327905
1 -> 2,0.3022300000000001,0.30222999999999994,0.30223,0.30223,0.30222999999999994,8.777083671441753e-17,124.86,124.86,124.86,124.86,124.86,0.0,32.55000000000001,32.549999999999976,32.55,32.55,32.55000000000001,1.6280579355608324e-14,20.39,-43.21,-12.0225,-12.635,-43.21,23.825525571327905
1 -> 2,0.3009500000000001,0.30094999999999983,0.30095,0.3009500000000001,0.3009500000000001,1.2719202621569003e-16,124.86,124.86,124.86,124.86,124.86,0.0,32.55000000000001,32.549999999999976,32.55,32.55,32.55000000000001,1.6280579355608324e-14,67.08,39.42,55.8725,58.495000000000005,39.42,10.637719151679084
1 -> 2,0.3009500000000001,0.30094999999999983,0.30095,0.3009500000000001,0.3009500000000001,1.2719202621569003e-16,124.86,124.86,124.86,124.86,124.86,0.0,32.55000000000001,32.549999999999976,32.55,32.55,32.55000000000001,1.6280579355608324e-14,67.08,39.42,55.8725,58.495000000000005,39.42,10.637719151679084
1 -> 2,0.3009500000000001,0.30094999999999983,0.30095,0.3009500000000001,0.3009500000000001,1.2719202621569003e-16,124.86,124.86,124.86,124.86,124.86,0.0,32.55000000000001,32.549999999999976,32.55,32.55,32.55000000000001,1.6280579355608324e-14,66.13,41.48,55.152499999999996,56.5,41.48,9.337364122170667
1 -> 2,0.3009500000000001,0.30094999999999983,0.30095,0.3009500000000001,0.3009500000000001,1.2719202621569003e-16,124.86,124.86,124.86,124.86,124.86,0.0,32.55000000000001,32.549999999999976,32.55,32.55,32.55000000000001,1.6280579355608324e-14,66.13,41.48,55.152499999999996,56.5,41.48,9.337364122170667
1 -> 2,0.3009500000000001,0.30094999999999983,0.30095,0.3009500000000001,0.3009500000000001,1.2719202621569003e-16,124.86,124.86,124.86,124.86,124.86,0.0,32.55000000000001,32.549999999999976,32.55,32.55,32.55000000000001,1.6280579355608324e-14,30.56,9.99,18.9575,17.64,9.99,7.78538494552453
1 -> 2,0.3009500000000001,0.30094999999999983,0.30095,0.3009500000000001,0.3009500000000001,1.2719202621569003e-16,124.86,124.86,124.86,124.86,124.86,0.0,32.55000000000001,32.549999999999976,32.55,32.55,32.55000000000001,1.6280579355608324e-14,30.56,9.99,18.9575,17.64,9.99,7.78538494552453
1 -> 2,0.3009500000000001,0.30094999999999983,0.30095,0.3009500000000001,0.3009500000000001,1.2719202621569003e-16,124.86,124.86,124.86,124.86,124.86,0.0,32.55000000000001,32.549999999999976,32.55,32.55,32.55000000000001,1.6280579355608324e-14,7.74,1.67,5.0175,5.33,1.67,2.264170653903985
1 -> 2,0.3009500000000001,0.30094999999999983,0.30095,0.3009500000000001,0.3009500000000001,1.2719202621569003e-16,124.86,124.86,124.86,124.86,124.86,0.0,32.55000000000001,32.549999999999976,32.55,32.55,32.55000000000001,1.6280579355608324e-14,7.74,1.67,5.0175,5.33,1.67,2.264170653903985
1 -> 2,0.3009500000000001,0.30094999999999983,0.30095,0.3009500000000001,0.3009500000000001,1.2719202621569003e-16,124.86,124.86,124.86,124.86,124.86,0.0,32.55000000000001,32.549999999999976,32.55,32.55,32.55000000000001,1.6280579355608324e-14,-1.83,-11.13,-6.785,-7.09,-11.13,3.4905980862883657
1 -> 2,0.3009500000000001,0.30094999999999983,0.30095,0.3009500000000001,0.3009500000000001,1.2719202621569003e-16,124.86,124.86,124.86,124.86,124.86,0.0,32.55000000000001,32.549999999999976,32.55,32.55,32.55000000000001,1.6280579355608324e-14,-1.83,-11.13,-6.785,-7.09,-11.13,3.4905980862883657
1 -> 2,0.3009500000000001,0.30094999999999983,0.30095,0.3009500000000001,0.3009500000000001,1.2719202621569003e-16,124.86,124.86,124.86,124.86,124.86,0.0,32.55000000000001,32.549999999999976,32.55,32.55,32.55000000000001,1.6280579355608324e-14,-12.95,-21.19,-16.5325,-15.995000000000001,-21.19,3.0925101050764576
1 -> 2,0.3009500000000001,0.30094999999999983,0.30095,0.3009500000000001,0.3009500000000001,1.2719202621569003e-16,124.86,124.86,124.86,124.86,124.86,0.0,32.55000000000001,32.549999999999976,32.55,32.55,32.55000000000001,1.6280579355608324e-14,-12.95,-21.19,-16.5325,-15.995000000000001,-21.19,3.0925101050764576
1 -> 2,0.3009500000000001,0.30094999999999983,0.30095,0.3009500000000001,0.3009500000000001,1.2719202621569003e-16,124.86,124.86,124.86,124.86,124.86,0.0,32.55000000000001,32.549999999999976,32.55,32.55,32.55000000000001,1.6280579355608324e-14,-27.01,-51.94,-39.27,-39.065,-51.94,9.348162921130545
1 -> 2,0.3009500000000001,0.30094999999999983,0.30095,0.3009500000000001,0.3009500000000001,1.2719202621569003e-16,124.86,124.86,124.86,124.86,124.86,0.0,32.55000000000001,32.549999999999976,32.55,32.55,32.55000000000001,1.6280579355608324e-14,-27.01,-51.94,-39.27,-39.065,-51.94,9.348162921130545
1 -> 2,0.3009500000000001,0.30094999999999983,0.30095,0.3009500000000001,0.3009500000000001,1.2719202621569003e-16,124.86,124.86,124.86,124.86,124.86,0.0,32.55000000000001,32.549999999999976,32.55,32.55,32.55000000000001,1.6280579355608324e-14,-43.58,-59.62,-54.05500000000001,-56.510000000000005,-59.62,6.276023820859829
1 -> 2,0.3009500000000001,0.30094999999999983,0.30095,0.3009500000000001,0.3009500000000001,1.2719202621569003e-16,124.86,124.86,124.86,124.86,124.86,0.0,32.55000000000001,32.549999999999976,32.55,32.55,32.55000000000001,1.6280579355608324e-14,-43.58,-59.62,-54.05500000000001,-56.510000000000005,-59.62,6.276023820859829
1 -> 2,0.3009500000000001,0.30094999999999983,0.30095,0.3009500000000001,0.3009500000000001,1.2719202621569003e-16,135.88,135.88,135.88,135.88,135.88,0.0,32.55000000000001,32.549999999999976,32.55,32.55,32.55000000000001,1.6280579355608324e-14,34.53,-26.45,4.4,4.76,-26.45,22.83058693945471
1 -> 2,0.3009500000000001,0.30094999999999983,0.30095,0.3009500000000001,0.3009500000000001,1.2719202621569003e-16,135.88,135.88,135.88,135.88,135.88,0.0,32.55000000000001,32.549999999999976,32.55,32.55,32.55000000000001,1.6280579355608324e-14,34.53,-26.45,4.4,4.76,-26.45,22.83058693945471
1 -> 2,0.3009500000000001,0.30094999999999983,0.30095,0.3009500000000001,0.3009500000000001,1.2719202621569003e-16,135.88,135.88,135.88,135.88,135.88,0.0,32.55000000000001,32.549999999999976,32.55,32.55,32.55000000000001,1.6280579355608324e-14,65.54,49.74,60.1425,62.644999999999996,49.74,6.39018925776068
1 -> 2,0.3009500000000001,0.30094999999999983,0.30095,0.3009500000000001,0.3009500000000001,1.2719202621569003e-16,135.88,135.88,135.88,135.88,135.88,0.0,32.55000000000001,32.549999999999976,32.55,32.55,32.55000000000001,1.6280579355608324e-14,65.54,49.74,60.1425,62.644999999999996,49.74,6.39018925776068
1 -> 2,0.3009500000000001,0.30094999999999983,0.30095,0.3009500000000001,0.3009500000000001,1.2719202621569003e-16,135.88,135.88,135.88,135.88,135.88,0.0,32.55000000000001,32.549999999999976,32.55,32.55,32.55000000000001,1.6280579355608324e-14,61.44,32.81,47.915000000000006,48.705,32.81,10.759150756449133
1 -> 2,0.3009500000000001,0.30094999999999983,0.30095,0.3009500000000001,0.3009500000000001,1.2719202621569003e-16,135.88,135.88,135.88,135.88,135.88,0.0,32.55000000000001,32.549999999999976,32.55,32.55,32.55000000000001,1.6280579355608324e-14,61.44,32.81,47.915000000000006,48.705,32.81,10.759150756449133
1 -> 2,0.3009500000000001,0.30094999999999983,0.30095,0.3009500000000001,0.3009500000000001,1.2719202621569003e-16,135.88,135.88,135.88,135.88,135.88,0.0,32.55000000000001,32.549999999999976,32.55,32.55,32.55000000000001,1.6280579355608324e-14,22.84,7.18,13.7575,12.505,7.18,5.954974286258506
1 -> 2,0.3009500000000001,0.30094999999999983,0.30095,0.3009500000000001,0.3009500000000001,1.2719202621569003e-16,135.88,135.88,135.88,135.88,135.88,0.0,32.55000000000001,32.549999999999976,32.55,32.55,32.55000000000001,1.6280579355608324e-14,22.84,7.18,13.7575,12.505,7.18,5.954974286258506
1 -> 2,0.3009500000000001,0.30094999999999983,0.30095,0.3009500000000001,0.3009500000000001,1.2719202621569003e-16,135.88,135.88,135.88,135.88,135.88,0.0,32.55000000000001,32.549999999999976,32.55,32.55,32.55000000000001,1.6280579355608324e-14,5.69,-0.55,2.965,3.3600000000000003,-0.55,2.3501542502567783
1 -> 2,0.3009500000000001,0.30094999999999983,0.30095,0.3009500000000001,0.3009500000000001,1.2719202621569003e-16,135.88,135.88,135.88,135.88,135.88,0.0,32.55000000000001,32.549999999999976,32.55,32.55,32.55000000000001,1.6280579355608324e-14,5.69,-0.55,2.965,3.3600000000000003,-0.55,2.3501542502567783
1 -> 2,0.3009500000000001,0.30094999999999983,0.30095,0.3009500000000001,0.3009500000000001,1.2719202621569003e-16,135.88,135.88,135.88,135.88,135.88,0.0,32.55000000000001,32.549999999999976,32.55,32.55,32.55000000000001,1.6280579355608324e-14,-4.08,-13.85,-9.16,-9.355,-13.85,3.6500205478873675
1 -> 2,0.3009500000000001,0.30094999999999983,0.30095,0.3009500000000001,0.3009500000000001,1.2719202621569003e-16,135.88,135.88,135.88,135.88,135.88,0.0,32.55000000000001,32.549999999999976,32.55,32.55,32.55000000000001,1.6280579355608324e-14,-4.08,-13.85,-9.16,-9.355,-13.85,3.6500205478873675
1 -> 2,0.3009500000000001,0.30094999999999983,0.30095,0.3009500000000001,0.3009500000000001,1.2719202621569003e-16,135.88,135.88,135.88,135.88,135.88,0.0,32.55000000000001,32.549999999999976,32.55,32.55,32.55000000000001,1.6280579355608324e-14,-16.54,-29.89,-22.490000000000002,-21.765,-29.89,5.006121253026139
1 -> 2,0.3009500000000001,0.30094999999999983,0.30095,0.3009500000000001,0.3009500000000001,1.2719202621569003e-16,135.88,135.88,135.88,135.88,135.88,0.0,32.55000000000001,32.549999999999976,32.55,32.55,32.55000000000001,1.6280579355608324e-14,-16.54,-29.89,-22.490000000000002,-21.765,-29.89,5.006121253026139
1 -> 2,0.3009500000000001,0.30094999999999983,0.30095,0.3009500000000001,0.3009500000000001,1.2719202621569003e-16,135.88,135.88,135.88,135.88,135.88,0.0,32.55000000000001,32.549999999999976,32.55,32.55,32.55000000000001,1.6280579355608324e-14,-37.82,-63.89,-51.370000000000005,-51.885000000000005,-63.89,9.812713691940676
1 -> 2,0.3009500000000001,0.30094999999999983,0.30095,0.3009500000000001,0.3009500000000001,1.2719202621569003e-16,135.88,135.88,135.88,135.88,135.88,0.0,32.55000000000001,32.549999999999976,32.55,32.55,32.55000000000001,1.6280579355608324e-14,-37.82,-63.89,-51.370000000000005,-51.885000000000005,-63.89,9.812713691940676
1 -> 2,0.3009500000000001,0.30094999999999983,0.30095,0.3009500000000001,0.3009500000000001,1.2719202621569003e-16,135.88,135.88,135.88,135.88,135.88,0.0,32.55000000000001,32.549999999999976,32.55,32.55,32.55000000000001,1.6280579355608324e-14,-34.47,-66.63,-53.942499999999995,-57.335,-66.63,12.489990742590644
1 -> 2,0.3009500000000001,0.30094999999999983,0.30095,0.3009500000000001,0.3009500000000001,1.2719202621569003e-16,135.88,135.88,135.88,135.88,135.88,0.0,32.55000000000001,32.549999999999976,32.55,32.55,32.55000000000001,1.6280579355608324e-14,-34.47,-66.63,-53.942499999999995,-57.335,-66.63,12.489990742590644
1 -> 2,0.3009500000000001,0.30094999999999983,0.30095,0.3009500000000001,0.3009500000000001,1.2719202621569003e-16,135.88,135.88,135.88,135.88,135.88,0.0,32.55000000000001,32.549999999999976,32.55,32.55,32.55000000000001,1.6280579355608324e-14,45.89,-13.17,17.785,19.21,-13.17,22.1281240732241
1 -> 2,0.3009500000000001,0.30094999999999983,0.30095,0.3009500000000001,0.3009500000000001,1.2719202621569003e-16,135.88,135.88,135.88,135.88,135.88,0.0,32.55000000000001,32.549999999999976,32.55,32.55,32.55000000000001,1.6280579355608324e-14,45.89,-13.17,17.785,19.21,-13.17,22.1281240732241
1 -> 2,0.3009500000000001,0.30094999999999983,0.30095,0.3009500000000001,0.3009500000000001,1.2719202621569003e-16,135.88,135.88,135.88,135.88,135.88,0.0,32.55000000000001,32.549999999999976,32.55,32.55,32.55000000000001,1.6280579355608324e-14,67.33,57.75,63.8675,65.195,57.75,3.6470424661635077
1 -> 2,0.3009500000000001,0.30094999999999983,0.30095,0.3009500000000001,0.3009500000000001,1.2719202621569003e-16,135.88,135.88,135.88,135.88,135.88,0.0,32.55000000000001,32.549999999999976,32.55,32.55,32.55000000000001,1.6280579355608324e-14,67.33,57.75,63.8675,65.195,57.75,3.6470424661635077
1 -> 2,0.3009500000000001,0.30094999999999983,0.30095,0.3009500000000001,0.3009500000000001,1.2719202621569003e-16,135.88,135.88,135.88,135.88,135.88,0.0,32.55000000000001,32.549999999999976,32.55,32.55,32.55000000000001,1.6280579355608324e-14,59.92,30.18,45.51,45.97,30.18,11.15790526935948
1 -> 2,0.3009500000000001,0.30094999999999983,0.30095,0.3009500000000001,0.3009500000000001,1.2719202621569003e-16,135.88,135.88,135.88,135.88,135.88,0.0,32.55000000000001,32.549999999999976,32.55,32.55,32.55000000000001,1.6280579355608324e-14,59.92,30.18,45.51,45.97,30.18,11.15790526935948
1 -> 2,0.29966900000000013,0.29966899999999985,0.299669,0.299669,0.29966900000000013,1.2719202621569003e-16,135.88,135.88,135.88,135.88,135.88,0.0,32.55000000000001,32.549999999999976,32.55,32.55,32.55000000000001,1.6280579355608324e-14,21.19,9.69,14.2375,13.035,9.69,4.425863616290046
1 -> 2,0.29966900000000013,0.29966899999999985,0.299669,0.299669,0.29966900000000013,1.2719202621569003e-16,135.88,135.88,135.88,135.88,135.88,0.0,32.55000000000001,32.549999999999976,32.55,32.55,32.55000000000001,1.6280579355608324e-14,21.19,9.69,14.2375,13.035,9.69,4.425863616290046
1 -> 2,0.29966900000000013,0.29966899999999985,0.299669,0.299669,0.29966900000000013,1.2719202621569003e-16,135.88,135.88,135.88,135.88,135.88,0.0,32.55000000000001,32.549999999999976,32.55,32.55,32.55000000000001,1.6280579355608324e-14,8.88,0.87,5.5425,6.21,0.87,3.057780036235439
1 -> 2,0.29966900000000013,0.29966899999999985,0.299669,0.299669,0.29966900000000013,1.2719202621569003e-16,135.88,135.88,135.88,135.88,135.88,0.0,32.55000000000001,32.549999999999976,32.55,32.55,32.55000000000001,1.6280579355608324e-14,8.88,0.87,5.5425,6.21,0.87,3.057780036235439
1 -> 2,0.29966900000000013,0.29966899999999985,0.299669,0.299669,0.29966900000000013,1.2719202621569003e-16,135.88,135.88,135.88,135.88,135.88,0.0,32.55000000000001,32.549999999999976,32.55,32.55,32.55000000000001,1.6280579355608324e-14,-3.86,-14.72,-9.772499999999999,-10.254999999999999,-14.72,4.083781182923493
1 -> 2,0.29966900000000013,0.29966899999999985,0.299669,0.299669,0.29966900000000013,1.2719202621569003e-16,135.88,135.88,135.88,135.88,135.88,0.0,32.55000000000001,32.549999999999976,32.55,32.55,32.55000000000001,1.6280579355608324e-14,-3.86,-14.72,-9.772499999999999,-10.254999999999999,-14.72,4.083781182923493
1 -> 2,0.29966900000000013,0.29966899999999985,0.299669,0.299669,0.29966900000000013,1.2719202621569003e-16,135.88,135.88,135.88,135.88,135.88,0.0,32.55000000000001,32.549999999999976,32.55,32.55,32.55000000000001,1.6280579355608324e-14,-16.71,-27.81,-21.462500000000002,-20.665,-27.81,4.1862953491123855
1 -> 2,0.29966900000000013,0.29966899999999985,0.299669,0.299669,0.29966900000000013,1.2719202621569003e-16,135.88,135.88,135.88,135.88,135.88,0.0,32.55000000000001,32.549999999999976,32.55,32.55,32.55000000000001,1.6280579355608324e-14,-16.71,-27.81,-21.462500000000002,-20.665,-27.81,4.1862953491123855
1 -> 2,0.3009500000000001,0.30094999999999983,0.30095,0.3009500000000001,0.3009500000000001,1.2719202621569003e-16,144.44,144.44,144.44,144.44,144.44,0.0,32.55000000000001,32.549999999999976,32.55,32.55,32.55000000000001,1.6280579355608324e-14,-35.46,-63.24,-49.605000000000004,-49.86,-63.24,10.434631042830409
1 -> 2,0.3009500000000001,0.30094999999999983,0.30095,0.3009500000000001,0.3009500000000001,1.2719202621569003e-16,144.44,144.44,144.44,144.44,144.44,0.0,32.55000000000001,32.549999999999976,32.55,32.55,32.55000000000001,1.6280579355608324e-14,-35.46,-63.24,-49.605000000000004,-49.86,-63.24,10.434631042830409
1 -> 2,0.3009500000000001,0.30094999999999983,0.30095,0.3009500000000001,0.3009500000000001,1.2719202621569003e-16,144.44,144.44,144.44,144.44,144.44,0.0,32.55000000000001,32.549999999999976,32.55,32.55,32.55000000000001,1.6280579355608324e-14,-40.78,-67.7,-57.8425,-61.44499999999999,-67.7,10.672034424138632
1 -> 2,0.3009500000000001,0.30094999999999983,0.30095,0.3009500000000001,0.3009500000000001,1.2719202621569003e-16,144.44,144.44,144.44,144.44,144.44,0.0,32.55000000000001,32.549999999999976,32.55,32.55,32.55000000000001,1.6280579355608324e-14,-40.78,-67.7,-57.8425,-61.44499999999999,-67.7,10.672034424138632
1 -> 2,0.3009500000000001,0.30094999999999983,0.30095,0.3009500000000001,0.3009500000000001,1.2719202621569003e-16,144.44,144.44,144.44,144.44,144.44,0.0,32.55000000000001,32.549999999999976,32.55,32.55,32.55000000000001,1.6280579355608324e-14,43.28,-19.63,13.0875,14.35,-19.63,23.573447324267192
1 -> 2,0.3009500000000001,0.30094999999999983,0.30095,0.3009500000000001,0.3009500000000001,1.2719202621569003e-16,144.44,144.44,144.44,144.44,144.44,0.0,32.55000000000001,32.549999999999976,32.55,32.55,32.55000000000001,1.6280579355608324e-14,43.28,-19.63,13.0875,14.35,-19.63,23.573447324267192
1 -> 2,0.3009500000000001,0.30094999999999983,0.30095,0.3009500000000001,0.3009500000000001,1.2719202621569003e-16,144.44,144.44,144.44,144.44,144.44,0.0,32.55000000000001,32.549999999999976,32.55,32.55,32.55000000000001,1.6280579355608324e-14,68.17,56.35,64.28,66.3,56.35,4.8243393330071624
1 -> 2,0.3009500000000001,0.30094999999999983,0.30095,0.3009500000000001,0.3009500000000001,1.2719202621569003e-16,144.44,144.44,144.44,144.44,144.44,0.0,32.55000000000001,32.549999999999976,32.55,32.55,32.55000000000001,1.6280579355608324e-14,68.17,56.35,64.28,66.3,56.35,4.8243393330071624
1 -> 2,0.3009500000000001,0.30094999999999983,0.30095,0.3009500000000001,0.3009500000000001,1.2719202621569003e-16,144.44,144.44,144.44,144.44,144.44,0.0,32.55000000000001,32.549999999999976,32.55,32.55,32.55000000000001,1.6280579355608324e-14,64.95,40.84,53.7725,54.650000000000006,40.84,9.066949252642809
1 -> 2,0.3009500000000001,0.30094999999999983,0.30095,0.3009500000000001,0.3009500000000001,1.2719202621569003e-16,144.44,144.44,144.44,144.44,144.44,0.0,32.55000000000001,32.549999999999976,32.55,32.55,32.55000000000001,1.6280579355608324e-14,64.95,40.84,53.7725,54.650000000000006,40.84,9.066949252642809
1 -> 2,0.3009500000000001,0.30094999999999983,0.30095,0.3009500000000001,0.3009500000000001,1.2719202621569003e-16,144.44,144.44,144.44,144.44,144.44,0.0,32.55000000000001,32.549999999999976,32.55,32.55,32.55000000000001,1.6280579355608324e-14,31.36,14.7,21.8175,20.604999999999997,14.7,6.330135760787441
1 -> 2,0.3009500000000001,0.30094999999999983,0.30095,0.3009500000000001,0.3009500000000001,1.2719202621569003e-16,144.44,144.44,144.44,144.44,144.44,0.0,32.55000000000001,32.549999999999976,32.55,32.55,32.55000000000001,1.6280579355608324e-14,31.36,14.7,21.8175,20.604999999999997,14.7,6.330135760787441
1 -> 2,0.3009500000000001,0.30094999999999983,0.30095,0.3009500000000001,0.3009500000000001,1.2719202621569003e-16,144.44,144.44,144.44,144.44,144.44,0.0,32.55000000000001,32.549999999999976,32.55,32.55,32.55000000000001,1.6280579355608324e-14,13.35,9.21,11.67,12.06,9.21,1.5693151372493668
1 -> 2,0.3009500000000001,0.30094999999999983,0.30095,0.3009500000000001,0.3009500000000001,1.2719202621569003e-16,144.44,144.44,144.44,144.44,144.44,0.0,32.55000000000001,32.549999999999976,32.55,32.55,32.55000000000001,1.6280579355608324e-14,13.35,9.21,11.67,12.06,9.21,1.5693151372493668
1 -> 2,0.3009500000000001,0.30094999999999983,0.30095,0.3009500000000001,0.3009500000000001,1.2719202621569003e-16,144.44,144.44,144.44,144.44,144.44,0.0,32.55000000000001,32.549999999999976,32.55,32.55,32.55000000000001,1.6280579355608324e-14,5.79,-6.57,-0.4425000000000001,-0.495,-6.57,4.623642368306615
1 -> 2,0.3009500000000001,0.30094999999999983,0.30095,0.3009500000000001,0.3009500000000001,1.2719202621569003e-16,144.44,144.44,144.44,144.44,144.44,0.0,32.55000000000001,32.549999999999976,32.55,32.55,32.55000000000001,1.6280579355608324e-14,5.79,-6.57,-0.4425000000000001,-0.495,-6.57,4.623642368306615
1 -> 2,0.29966900000000013,0.29966899999999985,0.299669,0.299669,0.29966900000000013,1.2719202621569003e-16,144.44,144.44,144.44,144.44,144.44,0.0,32.55000000000001,32.549999999999976,32.55,32.55,32.55000000000001,1.6280579355608324e-14,-10.04,-20.61,-15.134999999999998,-14.945,-20.61,3.92699949070534
1 -> 2,0.29966900000000013,0.29966899999999985,0.299669,0.299669,0.29966900000000013,1.2719202621569003e-16,144.44,144.44,144.44,144.44,144.44,0.0,32.55000000000001,32.549999999999976,32.55,32.55,32.55000000000001,1.6280579355608324e-14,-10.04,-20.61,-15.134999999999998,-14.945,-20.61,3.92699949070534
1 -> 2,0.29966900000000013,0.29966899999999985,0.299669,0.299669,0.29966900000000013,1.2719202621569003e-16,144.44,144.44,144.44,144.44,144.44,0.0,32.55000000000001,32.549999999999976,32.55,32.55,32.55000000000001,1.6280579355608324e-14,-25.55,-47.96,-36.1175,-35.480000000000004,-47.96,8.381600011334353
1 -> 2,0.29966900000000013,0.29966899999999985,0.299669,0.299669,0.29966900000000013,1.2719202621569003e-16,144.44,144.44,144.44,144.44,144.44,0.0,32.55000000000001,32.549999999999976,32.55,32.55,32.55000000000001,1.6280579355608324e-14,-25.55,-47.96,-36.1175,-35.480000000000004,-47.96,8.381600011334353
1 -> 2,0.29966900000000013,0.29966899999999985,0.299669,0.299669,0.29966900000000013,1.2719202621569003e-16,144.44,144.44,144.44,144.44,144.44,0.0,32.55000000000001,32.549999999999976,32.55,32.55,32.55000000000001,1.6280579355608324e-14,-57.14,-70.51,-65.83,-67.83500000000001,-70.51,5.424707365379262
1 -> 2,0.29966900000000013,0.29966899999999985,0.299669,0.299669,0.29966900000000013,1.2719202621569003e-16,144.44,144.44,144.44,144.44,144.44,0.0,32.55000000000001,32.549999999999976,32.55,32.55,32.55000000000001,1.6280579355608324e-14,-57.14,-70.51,-65.83,-67.83500000000001,-70.51,5.424707365379262
1 -> 2,0.29966900000000013,0.29966899999999985,0.299669,0.299669,0.29966900000000013,1.2719202621569003e-16,144.44,144.44,144.44,144.44,144.44,0.0,32.55000000000001,32.549999999999976,32.55,32.55,32.55000000000001,1.6280579355608324e-14,-4.43,-63.09,-36.0225,-38.285,-63.09,22.084459892648496
1 -> 2,0.29966900000000013,0.29966899999999985,0.299669,0.299669,0.29966900000000013,1.2719202621569003e-16,144.44,144.44,144.44,144.44,144.44,0.0,32.55000000000001,32.549999999999976,32.55,32.55,32.55000000000001,1.6280579355608324e-14,-4.43,-63.09,-36.0225,-38.285,-63.09,22.084459892648496
1 -> 2,0.3009500000000001,0.30094999999999983,0.30095,0.3009500000000001,0.3009500000000001,1.2719202621569003e-16,144.44,144.44,144.44,144.44,144.44,0.0,32.55000000000001,32.549999999999976,32.55,32.55,32.55000000000001,1.6280579355608324e-14,63.29,18.91,43.775,46.45,18.91,16.772861264554713
1 -> 2,0.3009500000000001,0.30094999999999983,0.30095,0.3009500000000001,0.3009500000000001,1.2719202621569003e-16,144.44,144.44,144.44,144.44,144.44,0.0,32.55000000000001,32.549999999999976,32.55,32.55,32.55000000000001,1.6280579355608324e-14,63.29,18.91,43.775,46.45,18.91,16.772861264554713
1 -> 2,0.3009500000000001,0.30094999999999983,0.30095,0.3009500000000001,0.3009500000000001,1.2719202621569003e-16,144.44,144.44,144.44,144.44,144.44,0.0,32.55000000000001,32.549999999999976,32.55,32.55,32.55000000000001,1.6280579355608324e-14,67.64,58.96,64.6675,66.035,58.96,3.5242543537605235
1 -> 2,0.3009500000000001,0.30094999999999983,0.30095,0.3009500000000001,0.3009500000000001,1.2719202621569003e-16,144.44,144.44,144.44,144.44,144.44,0.0,32.55000000000001,32.549999999999976,32.55,32.55,32.55000000000001,1.6280579355608324e-14,67.64,58.96,64.6675,66.035,58.96,3.5242543537605235
1 -> 2,0.3009500000000001,0.30094999999999983,0.30095,0.3009500000000001,0.3009500000000001,1.2719202621569003e-16,144.44,144.44,144.44,144.44,144.44,0.0,32.55000000000001,32.549999999999976,32.55,32.55,32.55000000000001,1.6280579355608324e-14,51.6,26.89,39.099999999999994,38.955,26.89,9.243330027646964
1 -> 2,0.3009500000000001,0.30094999999999983,0.30095,0.3009500000000001,0.3009500000000001,1.2719202621569003e-16,144.44,144.44,144.44,144.44,144.44,0.0,32.55000000000001,32.549999999999976,32.55,32.55,32.55000000000001,1.6280579355608324e-14,51.6,26.89,39.099999999999994,38.955,26.89,9.243330027646964
1 -> 2,0.3009500000000001,0.30094999999999983,0.30095,0.3009500000000001,0.3009500000000001,1.2719202621569003e-16,144.44,144.44,144.44,144.44,144.44,0.0,32.55000000000001,32.549999999999976,32.55,32.55,32.55000000000001,1.6280579355608324e-14,20.54,11.5,15.282499999999999,14.545,11.5,3.4334703653883483
1 -> 2,0.3009500000000001,0.30094999999999983,0.30095,0.3009500000000001,0.3009500000000001,1.2719202621569003e-16,144.44,144.44,144.44,144.44,144.44,0.0,32.55000000000001,32.549999999999976,32.55,32.55,32.55000000000001,1.6280579355608324e-14,20.54,11.5,15.282499999999999,14.545,11.5,3.4334703653883483
1 -> 2,0.3009500000000001,0.30094999999999983,0.30095,0.3009500000000001,0.3009500000000001,1.2719202621569003e-16,151.2,151.2,151.2,151.2,151.2,0.0,32.530000000000015,32.52999999999998,32.53,32.53,32.530000000000015,1.507288760336424e-14,10.46,4.85,8.037500000000001,8.42,4.85,2.1157430727760875
1 -> 2,0.3009500000000001,0.30094999999999983,0.30095,0.3009500000000001,0.3009500000000001,1.2719202621569003e-16,151.2,151.2,151.2,151.2,151.2,0.0,32.530000000000015,32.52999999999998,32.53,32.53,32.530000000000015,1.507288760336424e-14,10.46,4.85,8.037500000000001,8.42,4.85,2.1157430727760875
1 -> 2,0.3009500000000001,0.30094999999999983,0.30095,0.3009500000000001,0.3009500000000001,1.2719202621569003e-16,151.2,151.2,151.2,151.2,151.2,0.0,32.530000000000015,32.52999999999998,32.53,32.53,32.530000000000015,1.507288760336424e-14,1.28,-11.84,-5.2225,-5.165,-11.84,4.903072378621388
1 -> 2,0.3009500000000001,0.30094999999999983,0.30095,0.3009500000000001,0.3009500000000001,1.2719202621569003e-16,151.2,151.2,151.2,151.2,151.2,0.0,32.530000000000015,32.52999999999998,32.53,32.53,32.530000000000015,1.507288760336424e-14,1.28,-11.84,-5.2225,-5.165,-11.84,4.903072378621388
1 -> 2,0.3009500000000001,0.30094999999999983,0.30095,0.3009500000000001,0.3009500000000001,1.2719202621569003e-16,151.2,151.2,151.2,151.2,151.2,0.0,32.530000000000015,32.52999999999998,32.53,32.53,32.530000000000015,1.507288760336424e-14,-16.03,-27.6,-21.8275,-21.84,-27.6,4.3034078066109425
1 -> 2,0.3009500000000001,0.30094999999999983,0.30095,0.3009500000000001,0.3009500000000001,1.2719202621569003e-16,151.2,151.2,151.2,151.2,151.2,0.0,32.530000000000015,32.52999999999998,32.53,32.53,32.530000000000015,1.507288760336424e-14,-16.03,-27.6,-21.8275,-21.84,-27.6,4.3034078066109425
1 -> 2,0.3009500000000001,0.30094999999999983,0.30095,0.3009500000000001,0.3009500000000001,1.2719202621569003e-16,151.2,151.2,151.2,151.2,151.2,0.0,32.530000000000015,32.52999999999998,32.53,32.53,32.530000000000015,1.507288760336424e-14,-31.92,-51.16,-40.905,-40.269999999999996,-51.16,7.194683801252142
1 -> 2,0.3009500000000001,0.30094999999999983,0.30095,0.3009500000000001,0.3009500000000001,1.2719202621569003e-16,151.2,151.2,151.2,151.2,151.2,0.0,32.530000000000015,32.52999999999998,32.53,32.53,32.530000000000015,1.507288760336424e-14,-31.92,-51.16,-40.905,-40.269999999999996,-51.16,7.194683801252142
1 -> 2,0.29966900000000013,0.29966899999999985,0.299669,0.299669,0.29966900000000013,1.2719202621569003e-16,151.2,151.2,151.2,151.2,151.2,0.0,32.530000000000015,32.52999999999998,32.53,32.53,32.530000000000015,1.507288760336424e-14,-59.65,-72.38,-67.8425,-69.67,-72.38,5.098472197629403
1 -> 2,0.29966900000000013,0.29966899999999985,0.299669,0.299669,0.29966900000000013,1.2719202621569003e-16,151.2,151.2,151.2,151.2,151.2,0.0,32.530000000000015,32.52999999999998,32.53,32.53,32.530000000000015,1.507288760336424e-14,-59.65,-72.38,-67.8425,-69.67,-72.38,5.098472197629403
1 -> 2,0.29966900000000013,0.29966899999999985,0.299669,0.299669,0.29966900000000013,1.2719202621569003e-16,151.2,151.2,151.2,151.2,151.2,0.0,32.530000000000015,32.52999999999998,32.53,32.53,32.530000000000015,1.507288760336424e-14,-3.88,-64.1,-36.15,-38.31,-64.1,22.6655785278029
1 -> 2,0.29966900000000013,0.29966899999999985,0.299669,0.299669,0.29966900000000013,1.2719202621569003e-16,151.2,151.2,151.2,151.2,151.2,0.0,32.530000000000015,32.52999999999998,32.53,32.53,32.530000000000015,1.507288760336424e-14,-3.88,-64.1,-36.15,-38.31,-64.1,22.6655785278029
1 -> 2,0.29966900000000013,0.29966899999999985,0.299669,0.299669,0.29966900000000013,1.2719202621569003e-16,151.2,151.2,151.2,151.2,151.2,0.0,32.530000000000015,32.52999999999998,32.53,32.53,32.530000000000015,1.507288760336424e-14,59.93,19.13,42.332499999999996,45.135,19.13,15.4690859054438
1 -> 2,0.29966900000000013,0.29966899999999985,0.299669,0.299669,0.29966900000000013,1.2719202621569003e-16,151.2,151.2,151.2,151.2,151.2,0.0,32.530000000000015,32.52999999999998,32.53,32.53,32.530000000000015,1.507288760336424e-14,59.93,19.13,42.332499999999996,45.135,19.13,15.4690859054438
1 -> 2,0.29966900000000013,0.29966899999999985,0.299669,0.299669,0.29966900000000013,1.2719202621569003e-16,151.2,151.2,151.2,151.2,151.2,0.0,32.530000000000015,32.52999999999998,32.53,32.53,32.530000000000015,1.507288760336424e-14,62.84,50.47,58.0875,59.52,50.47,4.853387348028181
1 -> 2,0.29966900000000013,0.29966899999999985,0.299669,0.299669,0.29966900000000013,1.2719202621569003e-16,151.2,151.2,151.2,151.2,151.2,0.0,32.530000000000015,32.52999999999998,32.53,32.53,32.530000000000015,1.507288760336424e-14,62.84,50.47,58.0875,59.52,50.47,4.853387348028181
1 -> 2,0.29966900000000013,0.29966899999999985,0.299669,0.299669,0.29966900000000013,1.2719202621569003e-16,151.2,151.2,151.2,151.2,151.2,0.0,32.530000000000015,32.52999999999998,32.53,32.53,32.530000000000015,1.507288760336424e-14,41.88,17.39,29.015000000000004,28.395000000000003,17.39,9.191965241448644
1 -> 2,0.29966900000000013,0.29966899999999985,0.299669,0.299669,0.29966900000000013,1.2719202621569003e-16,151.2,151.2,151.2,151.2,151.2,0.0,32.530000000000015,32.52999999999998,32.53,32.53,32.530000000000015,1.507288760336424e-14,41.88,17.39,29.015000000000004,28.395000000000003,17.39,9.191965241448644
1 -> 2,0.29966900000000013,0.29966899999999985,0.299669,0.299669,0.29966900000000013,1.2719202621569003e-16,151.2,151.2,151.2,151.2,151.2,0.0,32.530000000000015,32.52999999999998,32.53,32.53,32.530000000000015,1.507288760336424e-14,13.12,10.61,11.405,10.945,10.61,1.01213882447024
1 -> 2,0.29966900000000013,0.29966899999999985,0.299669,0.299669,0.29966900000000013,1.2719202621569003e-16,151.2,151.2,151.2,151.2,151.2,0.0,32.530000000000015,32.52999999999998,32.53,32.53,32.530000000000015,1.507288760336424e-14,13.12,10.61,11.405,10.945,10.61,1.01213882447024
1 -> 2,0.29966900000000013,0.29966899999999985,0.299669,0.299669,0.29966900000000013,1.2719202621569003e-16,151.2,151.2,151.2,151.2,151.2,0.0,32.530000000000015,32.52999999999998,32.53,32.53,32.530000000000015,1.507288760336424e-14,9.81,0.56,5.664999999999999,6.145,0.56,3.499432096783705
1 -> 2,0.29966900000000013,0.29966899999999985,0.299669,0.299669,0.29966900000000013,1.2719202621569003e-16,151.2,151.2,151.2,151.2,151.2,0.0,32.530000000000015,32.52999999999998,32.53,32.53,32.530000000000015,1.507288760336424e-14,9.81,0.56,5.664999999999999,6.145,0.56,3.499432096783705
1 -> 2,0.29966900000000013,0.29966899999999985,0.299669,0.299669,0.29966900000000013,1.2719202621569003e-16,151.2,151.2,151.2,151.2,151.2,0.0,32.530000000000015,32.52999999999998,32.53,32.53,32.530000000000015,1.507288760336424e-14,-3.43,-11.82,-7.9475,-8.27,-11.82,3.1371115297355945
1 -> 2,0.29966900000000013,0.29966899999999985,0.299669,0.299669,0.29966900000000013,1.2719202621569003e-16,151.2,151.2,151.2,151.2,151.2,0.0,32.530000000000015,32.52999999999998,32.53,32.53,32.530000000000015,1.507288760336424e-14,-3.43,-11.82,-7.9475,-8.27,-11.82,3.1371115297355945
1 -> 2,0.29966900000000013,0.29966899999999985,0.299669,0.299669,0.29966900000000013,1.2719202621569003e-16,151.2,151.2,151.2,151.2,151.2,0.0,32.530000000000015,32.52999999999998,32.53,32.53,32.530000000000015,1.507288760336424e-14,-13.89,-25.51,-19.0225,-18.345,-25.51,4.365497537509328
1 -> 2,0.29966900000000013,0.29966899999999985,0.299669,0.299669,0.29966900000000013,1.2719202621569003e-16,151.2,151.2,151.2,151.2,151.2,0.0,32.530000000000015,32.52999999999998,32.53,32.53,32.530000000000015,1.507288760336424e-14,-13.89,-25.51,-19.0225,-18.345,-25.51,4.365497537509328
1 -> 2,0.29966900000000013,0.29966899999999985,0.299669,0.299669,0.29966900000000013,1.2719202621569003e-16,151.2,151.2,151.2,151.2,151.2,0.0,32.530000000000015,32.52999999999998,32.53,32.53,32.530000000000015,1.507288760336424e-14,-32.61,-57.91,-45.4775,-45.695,-57.91,9.500061512958744
1 -> 2,0.29966900000000013,0.29966899999999985,0.299669,0.299669,0.29966900000000013,1.2719202621569003e-16,151.2,151.2,151.2,151.2,151.2,0.0,32.530000000000015,32.52999999999998,32.53,32.53,32.530000000000015,1.507288760336424e-14,-32.61,-57.91,-45.4775,-45.695,-57.91,9.500061512958744
1 -> 2,0.29966900000000013,0.29966899999999985,0.299669,0.299669,0.29966900000000013,1.2719202621569003e-16,151.2,151.2,151.2,151.2,151.2,0.0,32.530000000000015,32.52999999999998,32.53,32.53,32.530000000000015,1.507288760336424e-14,-37.83,-62.08,-53.25,-56.545,-62.08,9.63064639575143
1 -> 2,0.29966900000000013,0.29966899999999985,0.299669,0.299669,0.29966900000000013,1.2719202621569003e-16,151.2,151.2,151.2,151.2,151.2,0.0,32.530000000000015,32.52999999999998,32.53,32.53,32.530000000000015,1.507288760336424e-14,-37.83,-62.08,-53.25,-56.545,-62.08,9.63064639575143
1 -> 2,0.29966900000000013,0.29966899999999985,0.299669,0.299669,0.29966900000000013,1.2719202621569003e-16,151.2,151.2,151.2,151.2,151.2,0.0,32.530000000000015,32.52999999999998,32.53,32.53,32.530000000000015,1.507288760336424e-14,38.9,-18.63,11.225,12.315,-18.63,21.551142081105585
1 -> 2,0.29966900000000013,0.29966899999999985,0.299669,0.299669,0.29966900000000013,1.2719202621569003e-16,151.2,151.2,151.2,151.2,151.2,0.0,32.530000000000015,32.52999999999998,32.53,32.53,32.530000000000015,1.507288760336424e-14,38.9,-18.63,11.225,12.315,-18.63,21.551142081105585
1 -> 2,0.3022300000000001,0.30222999999999994,0.30223,0.30223,0.30222999999999994,8.777083671441753e-17,156.55,156.55,156.55,156.55,156.55,0.0,32.530000000000015,32.52999999999998,32.53,32.53,32.530000000000015,1.507288760336424e-14,61.72,51.12,58.0275,59.635,51.12,4.136927452832598
1 -> 2,0.3022300000000001,0.30222999999999994,0.30223,0.30223,0.30222999999999994,8.777083671441753e-17,156.55,156.55,156.55,156.55,156.55,0.0,32.530000000000015,32.52999999999998,32.53,32.53,32.530000000000015,1.507288760336424e-14,61.72,51.12,58.0275,59.635,51.12,4.136927452832598
1 -> 2,0.3022300000000001,0.30222999999999994,0.30223,0.30223,0.30222999999999994,8.777083671441753e-17,156.55,156.55,156.55,156.55,156.55,0.0,32.530000000000015,32.52999999999998,32.53,32.53,32.530000000000015,1.507288760336424e-14,55.73,26.8,41.925,42.584999999999994,26.8,10.859628216472236
1 -> 2,0.3022300000000001,0.30222999999999994,0.30223,0.30223,0.30222999999999994,8.777083671441753e-17,156.55,156.55,156.55,156.55,156.55,0.0,32.530000000000015,32.52999999999998,32.53,32.53,32.530000000000015,1.507288760336424e-14,55.73,26.8,41.925,42.584999999999994,26.8,10.859628216472236
1 -> 2,0.3022300000000001,0.30222999999999994,0.30223,0.30223,0.30222999999999994,8.777083671441753e-17,156.55,156.55,156.55,156.55,156.55,0.0,32.530000000000015,32.52999999999998,32.53,32.53,32.530000000000015,1.507288760336424e-14,17.22,4.13,9.31,7.945,4.13,5.051569063172352
1 -> 2,0.3022300000000001,0.30222999999999994,0.30223,0.30223,0.30222999999999994,8.777083671441753e-17,156.55,156.55,156.55,156.55,156.55,0.0,32.530000000000015,32.52999999999998,32.53,32.53,32.530000000000015,1.507288760336424e-14,17.22,4.13,9.31,7.945,4.13,5.051569063172352
1 -> 2,0.3022300000000001,0.30222999999999994,0.30223,0.30223,0.30222999999999994,8.777083671441753e-17,156.55,156.55,156.55,156.55,156.55,0.0,32.530000000000015,32.52999999999998,32.53,32.53,32.530000000000015,1.507288760336424e-14,3.89,0.16,2.6275,3.23,0.16,1.4993060894960708
1 -> 2,0.3022300000000001,0.30222999999999994,0.30223,0.30223,0.30222999999999994,8.777083671441753e-17,156.55,156.55,156.55,156.55,156.55,0.0,32.530000000000015,32.52999999999998,32.53,32.53,32.530000000000015,1.507288760336424e-14,3.89,0.16,2.6275,3.23,0.16,1.4993060894960708
1 -> 2,0.3009500000000001,0.30094999999999983,0.30095,0.3009500000000001,0.3009500000000001,1.2719202621569003e-16,156.55,156.55,156.55,156.55,156.55,0.0,32.530000000000015,32.52999999999998,32.53,32.53,32.530000000000015,1.507288760336424e-14,-3.65,-16.32,-10.16,-10.335,-16.32,4.7463406957360315
1 -> 2,0.3009500000000001,0.30094999999999983,0.30095,0.3009500000000001,0.3009500000000001,1.2719202621569003e-16,156.55,156.55,156.55,156.55,156.55,0.0,32.530000000000015,32.52999999999998,32.53,32.53,32.530000000000015,1.507288760336424e-14,-3.65,-16.32,-10.16,-10.335,-16.32,4.7463406957360315
1 -> 2,0.3009500000000001,0.30094999999999983,0.30095,0.3009500000000001,0.3009500000000001,1.2719202621569003e-16,156.55,156.55,156.55,156.55,156.55,0.0,32.530000000000015,32.52999999999998,32.53,32.53,32.530000000000015,1.507288760336424e-14,-19.33,-27.71,-23.310000000000002,-23.1,-27.71,3.1050523345025933
1 -> 2,0.3009500000000001,0.30094999999999983,0.30095,0.3009500000000001,0.3009500000000001,1.2719202621569003e-16,156.55,156.55,156.55,156.55,156.55,0.0,32.530000000000015,32.52999999999998,32.53,32.53,32.530000000000015,1.507288760336424e-14,-19.33,-27.71,-23.310000000000002,-23.1,-27.71,3.1050523345025933
1 -> 2,0.3009500000000001,0.30094999999999983,0.30095,0.3009500000000001,0.3009500000000001,1.2719202621569003e-16,156.55,156.55,156.55,156.55,156.55,0.0,32.530000000000015,32.52999999999998,32.53,32.53,32.530000000000015,1.507288760336424e-14,-32.44,-55.96,-43.6,-43.0,-55.96,8.8199348070153
1 -> 2,0.3009500000000001,0.30094999999999983,0.30095,0.3009500000000001,0.3009500000000001,1.2719202621569003e-16,156.55,156.55,156.55,156.55,156.55,0.0,32.530000000000015,32.52999999999998,32.53,32.53,32.530000000000015,1.507288760336424e-14,-32.44,-55.96,-43.6,-43.0,-55.96,8.8199348070153
1 -> 2,0.3009500000000001,0.30094999999999983,0.30095,0.3009500000000001,0.3009500000000001,1.2719202621569003e-16,156.55,156.55,156.55,156.55,156.55,0.0,32.530000000000015,32.52999999999998,32.53,32.53,32.530000000000015,1.507288760336424e-14,-60.53,-68.72,-65.31,-65.995,-68.72,3.311381886765704
1 -> 2,0.3009500000000001,0.30094999999999983,0.30095,0.3009500000000001,0.3009500000000001,1.2719202621569003e-16,156.55,156.55,156.55,156.55,156.55,0.0,32.530000000000015,32.52999999999998,32.53,32.53,32.530000000000015,1.507288760336424e-14,-60.53,-68.72,-65.31,-65.995,-68.72,3.311381886765704
1 -> 2,0.3022300000000001,0.30222999999999994,0.30223,0.30223,0.30222999999999994,8.777083671441753e-17,156.55,156.55,156.55,156.55,156.55,0.0,32.530000000000015,32.52999999999998,32.53,32.53,32.530000000000015,1.507288760336424e-14,15.92,-46.19,-15.502500000000001,-15.870000000000001,-46.19,23.266099130494563
1 -> 2,0.3022300000000001,0.30222999999999994,0.30223,0.30223,0.30222999999999994,8.777083671441753e-17,156.55,156.55,156.55,156.55,156.55,0.0,32.530000000000015,32.52999999999998,32.53,32.53,32.530000000000015,1.507288760336424e-14,15.92,-46.19,-15.502500000000001,-15.870000000000001,-46.19,23.266099130494563
1 -> 2,0.3022300000000001,0.30222999999999994,0.30223,0.30223,0.30222999999999994,8.777083671441753e-17,156.55,156.55,156.55,156.55,156.55,0.0,32.530000000000015,32.52999999999998,32.53,32.53,32.530000000000015,1.507288760336424e-14,59.81,33.63,48.955000000000005,51.19,33.63,9.995712831009103
1 -> 2,0.3022300000000001,0.30222999999999994,0.30223,0.30223,0.30222999999999994,8.777083671441753e-17,156.55,156.55,156.55,156.55,156.55,0.0,32.530000000000015,32.52999999999998,32.53,32.53,32.530000000000015,1.507288760336424e-14,59.81,33.63,48.955000000000005,51.19,33.63,9.995712831009103
1 -> 2,0.3022300000000001,0.30222999999999994,0.30223,0.30223,0.30222999999999994,8.777083671441753e-17,156.55,156.55,156.55,156.55,156.55,0.0,32.530000000000015,32.52999999999998,32.53,32.53,32.530000000000015,1.507288760336424e-14,60.25,42.24,52.627500000000005,54.010000000000005,42.24,6.881480127850402
1 -> 2,0.3022300000000001,0.30222999999999994,0.30223,0.30223,0.30222999999999994,8.777083671441753e-17,156.55,156.55,156.55,156.55,156.55,0.0,32.530000000000015,32.52999999999998,32.53,32.53,32.530000000000015,1.507288760336424e-14,60.25,42.24,52.627500000000005,54.010000000000005,42.24,6.881480127850402
1 -> 2,0.3022300000000001,0.30222999999999994,0.30223,0.30223,0.30222999999999994,8.777083671441753e-17,156.55,156.55,156.55,156.55,156.55,0.0,32.530000000000015,32.52999999999998,32.53,32.53,32.530000000000015,1.507288760336424e-14,32.52,11.79,20.972499999999997,19.79,11.79,7.843667429844283
1 -> 2,0.3022300000000001,0.30222999999999994,0.30223,0.30223,0.30222999999999994,8.777083671441753e-17,156.55,156.55,156.55,156.55,156.55,0.0,32.530000000000015,32.52999999999998,32.53,32.53,32.530000000000015,1.507288760336424e-14,32.52,11.79,20.972499999999997,19.79,11.79,7.843667429844283
1 -> 2,0.2983880000000001,0.29838799999999993,0.298388,0.29838800000000004,0.2983880000000001,8.326672684688674e-17,156.55,156.55,156.55,156.55,156.55,0.0,32.530000000000015,32.52999999999998,32.53,32.53,32.530000000000015,1.507288760336424e-14,9.9,7.91,9.1325,9.36,7.91,0.7460353543901255
1 -> 2,0.2983880000000001,0.29838799999999993,0.298388,0.29838800000000004,0.2983880000000001,8.326672684688674e-17,156.55,156.55,156.55,156.55,156.55,0.0,32.530000000000015,32.52999999999998,32.53,32.53,32.530000000000015,1.507288760336424e-14,9.9,7.91,9.1325,9.36,7.91,0.7460353543901255
1 -> 2,0.2983880000000001,0.29838799999999993,0.298388,0.29838800000000004,0.2983880000000001,8.326672684688674e-17,156.55,156.55,156.55,156.55,156.55,0.0,32.530000000000015,32.52999999999998,32.53,32.53,32.530000000000015,1.507288760336424e-14,5.06,-7.76,-1.345,-1.3399999999999999,-7.76,4.813120089920882
1 -> 2,0.2983880000000001,0.29838799999999993,0.298388,0.29838800000000004,0.2983880000000001,8.326672684688674e-17,156.55,156.55,156.55,156.55,156.55,0.0,32.530000000000015,32.52999999999998,32.53,32.53,32.530000000000015,1.507288760336424e-14,5.06,-7.76,-1.345,-1.3399999999999999,-7.76,4.813120089920882
1 -> 2,0.2983880000000001,0.29838799999999993,0.298388,0.29838800000000004,0.2983880000000001,8.326672684688674e-17,156.55,156.55,156.55,156.55,156.55,0.0,32.530000000000015,32.52999999999998,32.53,32.53,32.530000000000015,1.507288760336424e-14,-10.85,-16.78,-13.775,-13.735,-16.78,2.17658562891516
1 -> 2,0.2983880000000001,0.29838799999999993,0.298388,0.29838800000000004,0.2983880000000001,8.326672684688674e-17,156.55,156.55,156.55,156.55,156.55,0.0,32.530000000000015,32.52999999999998,32.53,32.53,32.530000000000015,1.507288760336424e-14,-10.85,-16.78,-13.775,-13.735,-16.78,2.17658562891516
1 -> 2,0.2983880000000001,0.29838799999999993,0.298388,0.29838800000000004,0.2983880000000001,8.326672684688674e-17,156.55,156.55,156.55,156.55,156.55,0.0,32.530000000000015,32.52999999999998,32.53,32.53,32.530000000000015,1.507288760336424e-14,-20.58,-44.38,-31.57,-30.659999999999997,-44.38,8.946401511222264
1 -> 2,0.2983880000000001,0.29838799999999993,0.298388,0.29838800000000004,0.2983880000000001,8.326672684688674e-17,156.55,156.55,156.55,156.55,156.55,0.0,32.530000000000015,32.52999999999998,32.53,32.53,32.530000000000015,1.507288760336424e-14,-20.58,-44.38,-31.57,-30.659999999999997,-44.38,8.946401511222264
1 -> 2,0.29966900000000013,0.29966899999999985,0.299669,0.299669,0.29966900000000013,1.2719202621569003e-16,161.0,161.0,161.0,161.0,161.0,0.0,32.530000000000015,32.52999999999998,32.53,32.53,32.530000000000015,1.507288760336424e-14,-53.85,-63.51,-59.485,-60.29,-63.51,3.5446473731529338
1 -> 2,0.29966900000000013,0.29966899999999985,0.299669,0.299669,0.29966900000000013,1.2719202621569003e-16,161.0,161.0,161.0,161.0,161.0,0.0,32.530000000000015,32.52999999999998,32.53,32.53,32.530000000000015,1.507288760336424e-14,-53.85,-63.51,-59.485,-60.29,-63.51,3.5446473731529338
1 -> 2,0.29966900000000013,0.29966899999999985,0.299669,0.299669,0.29966900000000013,1.2719202621569003e-16,161.0,161.0,161.0,161.0,161.0,0.0,32.530000000000015,32.52999999999998,32.53,32.53,32.530000000000015,1.507288760336424e-14,11.21,-48.59,-19.837500000000006,-20.985,-48.59,22.43177587151762
1 -> 2,0.29966900000000013,0.29966899999999985,0.299669,0.299669,0.29966900000000013,1.2719202621569003e-16,161.0,161.0,161.0,161.0,161.0,0.0,32.530000000000015,32.52999999999998,32.53,32.53,32.530000000000015,1.507288760336424e-14,11.21,-48.59,-19.837500000000006,-20.985,-48.59,22.43177587151762
1 -> 2,0.29966900000000013,0.29966899999999985,0.299669,0.299669,0.29966900000000013,1.2719202621569003e-16,161.0,161.0,161.0,161.0,161.0,0.0,32.530000000000015,32.52999999999998,32.53,32.53,32.530000000000015,1.507288760336424e-14,63.64,30.83,49.5625,51.89,30.83,12.440903052029624
1 -> 2,0.29966900000000013,0.29966899999999985,0.299669,0.299669,0.29966900000000013,1.2719202621569003e-16,161.0,161.0,161.0,161.0,161.0,0.0,32.530000000000015,32.52999999999998,32.53,32.53,32.530000000000015,1.507288760336424e-14,63.64,30.83,49.5625,51.89,30.83,12.440903052029624
1 -> 2,0.29966900000000013,0.29966899999999985,0.299669,0.299669,0.29966900000000013,1.2719202621569003e-16,161.0,161.0,161.0,161.0,161.0,0.0,32.530000000000015,32.52999999999998,32.53,32.53,32.530000000000015,1.507288760336424e-14,65.92,52.15,60.6225,62.209999999999994,52.15,5.385774665728227
1 -> 2,0.29966900000000013,0.29966899999999985,0.299669,0.299669,0.29966900000000013,1.2719202621569003e-16,161.0,161.0,161.0,161.0,161.0,0.0,32.530000000000015,32.52999999999998,32.53,32.53,32.530000000000015,1.507288760336424e-14,65.92,52.15,60.6225,62.209999999999994,52.15,5.385774665728227
1 -> 2,0.3009500000000001,0.30094999999999983,0.30095,0.3009500000000001,0.3009500000000001,1.2719202621569003e-16,161.0,161.0,161.0,161.0,161.0,0.0,32.530000000000015,32.52999999999998,32.53,32.53,32.530000000000015,1.507288760336424e-14,42.29,14.05,27.425,26.68,14.05,10.601635487036894
1 -> 2,0.3009500000000001,0.30094999999999983,0.30095,0.3009500000000001,0.3009500000000001,1.2719202621569003e-16,161.0,161.0,161.0,161.0,161.0,0.0,32.530000000000015,32.52999999999998,32.53,32.53,32.530000000000015,1.507288760336424e-14,42.29,14.05,27.425,26.68,14.05,10.601635487036894
1 -> 2,0.3009500000000001,0.30094999999999983,0.30095,0.3009500000000001,0.3009500000000001,1.2719202621569003e-16,161.0,161.0,161.0,161.0,161.0,0.0,32.530000000000015,32.52999999999998,32.53,32.53,32.530000000000015,1.507288760336424e-14,9.13,4.52,6.45,6.074999999999999,4.52,1.7178911490545616
1 -> 2,0.3009500000000001,0.30094999999999983,0.30095,0.3009500000000001,0.3009500000000001,1.2719202621569003e-16,161.0,161.0,161.0,161.0,161.0,0.0,32.530000000000015,32.52999999999998,32.53,32.53,32.530000000000015,1.507288760336424e-14,9.13,4.52,6.45,6.074999999999999,4.52,1.7178911490545616
1 -> 2,0.3009500000000001,0.30094999999999983,0.30095,0.3009500000000001,0.3009500000000001,1.2719202621569003e-16,161.0,161.0,161.0,161.0,161.0,0.0,32.530000000000015,32.52999999999998,32.53,32.53,32.530000000000015,1.507288760336424e-14,2.66,-8.36,-2.59,-2.33,-8.36,4.141123036085743
1 -> 2,0.3009500000000001,0.30094999999999983,0.30095,0.3009500000000001,0.3009500000000001,1.2719202621569003e-16,161.0,161.0,161.0,161.0,161.0,0.0,32.530000000000015,32.52999999999998,32.53,32.53,32.530000000000015,1.507288760336424e-14,2.66,-8.36,-2.59,-2.33,-8.36,4.141123036085743
1 -> 2,0.3009500000000001,0.30094999999999983,0.30095,0.3009500000000001,0.3009500000000001,1.2719202621569003e-16,161.0,161.0,161.0,161.0,161.0,0.0,32.530000000000015,32.52999999999998,32.53,32.53,32.530000000000015,1.507288760336424e-14,-12.0,-19.88,-16.035,-16.13,-19.88,2.915968964169543
1 -> 2,0.3009500000000001,0.30094999999999983,0.30095,0.3009500000000001,0.3009500000000001,1.2719202621569003e-16,161.0,161.0,161.0,161.0,161.0,0.0,32.530000000000015,32.52999999999998,32.53,32.53,32.530000000000015,1.507288760336424e-14,-12.0,-19.88,-16.035,-16.13,-19.88,2.915968964169543
1 -> 2,0.3009500000000001,0.30094999999999983,0.30095,0.3009500000000001,0.3009500000000001,1.2719202621569003e-16,161.0,161.0,161.0,161.0,161.0,0.0,32.530000000000015,32.52999999999998,32.53,32.53,32.530000000000015,1.507288760336424e-14,-23.24,-42.5,-32.0475,-31.225,-42.5,7.228088872585893
1 -> 2,0.3009500000000001,0.30094999999999983,0.30095,0.3009500000000001,0.3009500000000001,1.2719202621569003e-16,161.0,161.0,161.0,161.0,161.0,0.0,32.530000000000015,32.52999999999998,32.53,32.53,32.530000000000015,1.507288760336424e-14,-23.24,-42.5,-32.0475,-31.225,-42.5,7.228088872585893
1 -> 2,0.3009500000000001,0.30094999999999983,0.30095,0.3009500000000001,0.3009500000000001,1.2719202621569003e-16,161.0,161.0,161.0,161.0,161.0,0.0,32.530000000000015,32.52999999999998,32.53,32.53,32.530000000000015,1.507288760336424e-14,-51.58,-71.29,-62.817499999999995,-64.19999999999999,-71.29,7.551424948312737
1 -> 2,0.3009500000000001,0.30094999999999983,0.30095,0.3009500000000001,0.3009500000000001,1.2719202621569003e-16,161.0,161.0,161.0,161.0,161.0,0.0,32.530000000000015,32.52999999999998,32.53,32.53,32.530000000000015,1.507288760336424e-14,-51.58,-71.29,-62.817499999999995,-64.19999999999999,-71.29,7.551424948312737
1 -> 2,0.3009500000000001,0.30094999999999983,0.30095,0.3009500000000001,0.3009500000000001,1.2719202621569003e-16,161.0,161.0,161.0,161.0,161.0,0.0,32.530000000000015,32.52999999999998,32.53,32.53,32.530000000000015,1.507288760336424e-14,-25.27,-69.12,-49.945,-52.695,-69.12,16.636024915826496
1 -> 2,0.3009500000000001,0.30094999999999983,0.30095,0.3009500000000001,0.3009500000000001,1.2719202621569003e-16,161.0,161.0,161.0,161.0,161.0,0.0,32.530000000000015,32.52999999999998,32.53,32.53,32.530000000000015,1.507288760336424e-14,-25.27,-69.12,-49.945,-52.695,-69.12,16.636024915826496
1 -> 2,0.3009500000000001,0.30094999999999983,0.30095,0.3009500000000001,0.3009500000000001,1.2719202621569003e-16,161.0,161.0,161.0,161.0,161.0,0.0,32.530000000000015,32.52999999999998,32.53,32.53,32.530000000000015,1.507288760336424e-14,47.49,-3.54,23.9525,25.93,-3.54,19.16865458893764
1 -> 2,0.3009500000000001,0.30094999999999983,0.30095,0.3009500000000001,0.3009500000000001,1.2719202621569003e-16,161.0,161.0,161.0,161.0,161.0,0.0,32.530000000000015,32.52999999999998,32.53,32.53,32.530000000000015,1.507288760336424e-14,47.49,-3.54,23.9525,25.93,-3.54,19.16865458893764
1 -> 2,0.3009500000000001,0.30094999999999983,0.30095,0.3009500000000001,0.3009500000000001,1.2719202621569003e-16,161.0,161.0,161.0,161.0,161.0,0.0,32.530000000000015,32.52999999999998,32.53,32.53,32.530000000000015,1.507288760336424e-14,58.28,51.36,55.43000000000001,56.040000000000006,51.36,2.5737812649873737
1 -> 2,0.3009500000000001,0.30094999999999983,0.30095,0.3009500000000001,0.3009500000000001,1.2719202621569003e-16,161.0,161.0,161.0,161.0,161.0,0.0,32.530000000000015,32.52999999999998,32.53,32.53,32.530000000000015,1.507288760336424e-14,58.28,51.36,55.43000000000001,56.040000000000006,51.36,2.5737812649873737
1 -> 2,0.3009500000000001,0.30094999999999983,0.30095,0.3009500000000001,0.3009500000000001,1.2719202621569003e-16,161.0,161.0,161.0,161.0,161.0,0.0,32.530000000000015,32.52999999999998,32.53,32.53,32.530000000000015,1.507288760336424e-14,42.93,14.12,28.127499999999998,27.729999999999997,14.12,10.80566836202185
1 -> 2,0.3009500000000001,0.30094999999999983,0.30095,0.3009500000000001,0.3009500000000001,1.2719202621569003e-16,161.0,161.0,161.0,161.0,161.0,0.0,32.530000000000015,32.52999999999998,32.53,32.53,32.530000000000015,1.507288760336424e-14,42.93,14.12,28.127499999999998,27.729999999999997,14.12,10.80566836202185
1 -> 2,0.3009500000000001,0.30094999999999983,0.30095,0.3009500000000001,0.3009500000000001,1.2719202621569003e-16,161.0,161.0,161.0,161.0,161.0,0.0,32.530000000000015,32.52999999999998,32.53,32.53,32.530000000000015,1.507288760336424e-14,8.2,3.37,5.1,4.415,3.37,1.887418872428693
1 -> 2,0.3009500000000001,0.30094999999999983,0.30095,0.3009500000000001,0.3009500000000001,1.2719202621569003e-16,161.0,161.0,161.0,161.0,161.0,0.0,32.530000000000015,32.52999999999998,32.53,32.53,32.530000000000015,1.507288760336424e-14,8.2,3.37,5.1,4.415,3.37,1.887418872428693
1 -> 2,0.3009500000000001,0.30094999999999983,0.30095,0.3009500000000001,0.3009500000000001,1.2719202621569003e-16,161.0,161.0,161.0,161.0,161.0,0.0,32.530000000000015,32.52999999999998,32.53,32.53,32.530000000000015,1.507288760336424e-14,2.54,-5.18,-0.9874999999999999,-0.6549999999999999,-5.18,2.9164479679912
1 -> 2,0.3009500000000001,0.30094999999999983,0.30095,0.3009500000000001,0.3009500000000001,1.2719202621569003e-16,161.0,161.0,161.0,161.0,161.0,0.0,32.530000000000015,32.52999999999998,32.53,32.53,32.530000000000015,1.507288760336424e-14,2.54,-5.18,-0.9874999999999999,-0.6549999999999999,-5.18,2.9164479679912
1 -> 2,0.29966900000000013,0.29966899999999985,0.299669,0.299669,0.29966900000000013,1.2719202621569003e-16,164.77,164.77,164.77,164.77,164.77,0.0,32.500000000000014,32.49999999999999,32.50000000000001,32.500000000000014,32.500000000000014,8.702335715267317e-15,-8.07,-13.77,-11.05,-11.18,-13.77,2.109016358400285
1 -> 2,0.29966900000000013,0.29966899999999985,0.299669,0.299669,0.29966900000000013,1.2719202621569003e-16,164.77,164.77,164.77,164.77,164.77,0.0,32.500000000000014,32.49999999999999,32.50000000000001,32.500000000000014,32.500000000000014,8.702335715267317e-15,-8.07,-13.77,-11.05,-11.18,-13.77,2.109016358400285
1 -> 2,0.29966900000000013,0.29966899999999985,0.299669,0.299669,0.29966900000000013,1.2719202621569003e-16,164.77,164.77,164.77,164.77,164.77,0.0,32.500000000000014,32.49999999999999,32.50000000000001,32.500000000000014,32.500000000000014,8.702335715267317e-15,-16.27,-33.4,-23.9675,-23.1,-33.4,6.448206630529143
1 -> 2,0.29966900000000013,0.29966899999999985,0.299669,0.299669,0.29966900000000013,1.2719202621569003e-16,164.77,164.77,164.77,164.77,164.77,0.0,32.500000000000014,32.49999999999999,32.50000000000001,32.500000000000014,32.500000000000014,8.702335715267317e-15,-16.27,-33.4,-23.9675,-23.1,-33.4,6.448206630529143
1 -> 2,0.29966900000000013,0.29966899999999985,0.299669,0.299669,0.29966900000000013,1.2719202621569003e-16,164.77,164.77,164.77,164.77,164.77,0.0,32.500000000000014,32.49999999999999,32.50000000000001,32.500000000000014,32.500000000000014,8.702335715267317e-15,-41.68,-55.6,-50.342499999999994,-52.045,-55.6,5.533291854764214
1 -> 2,0.29966900000000013,0.29966899999999985,0.299669,0.299669,0.29966900000000013,1.2719202621569003e-16,164.77,164.77,164.77,164.77,164.77,0.0,32.500000000000014,32.49999999999999,32.50000000000001,32.500000000000014,32.500000000000014,8.702335715267317e-15,-41.68,-55.6,-50.342499999999994,-52.045,-55.6,5.533291854764214
1 -> 2,0.29966900000000013,0.29966899999999985,0.299669,0.299669,0.29966900000000013,1.2719202621569003e-16,164.77,164.77,164.77,164.77,164.77,0.0,32.500000000000014,32.49999999999999,32.50000000000001,32.500000000000014,32.500000000000014,8.702335715267317e-15,-4.14,-50.72,-29.505,-31.580000000000002,-50.72,17.563737500885168
1 -> 2,0.29966900000000013,0.29966899999999985,0.299669,0.299669,0.29966900000000013,1.2719202621569003e-16,164.77,164.77,164.77,164.77,164.77,0.0,32.500000000000014,32.49999999999999,32.50000000000001,32.500000000000014,32.500000000000014,8.702335715267317e-15,-4.14,-50.72,-29.505,-31.580000000000002,-50.72,17.563737500885168
1 -> 2,0.3009500000000001,0.30094999999999983,0.30095,0.3009500000000001,0.3009500000000001,1.2719202621569003e-16,164.77,164.77,164.77,164.77,164.77,0.0,32.500000000000014,32.49999999999999,32.50000000000001,32.500000000000014,32.500000000000014,8.702335715267317e-15,55.31,15.57,37.6625,39.885,15.57,15.009938998876713
1 -> 2,0.3009500000000001,0.30094999999999983,0.30095,0.3009500000000001,0.3009500000000001,1.2719202621569003e-16,164.77,164.77,164.77,164.77,164.77,0.0,32.500000000000014,32.49999999999999,32.50000000000001,32.500000000000014,32.500000000000014,8.702335715267317e-15,55.31,15.57,37.6625,39.885,15.57,15.009938998876713
1 -> 2,0.3009500000000001,0.30094999999999983,0.30095,0.3009500000000001,0.3009500000000001,1.2719202621569003e-16,164.77,164.77,164.77,164.77,164.77,0.0,32.500000000000014,32.49999999999999,32.50000000000001,32.500000000000014,32.500000000000014,8.702335715267317e-15,58.95,45.08,53.765,55.515,45.08,5.4906944005289535
1 -> 2,0.3009500000000001,0.30094999999999983,0.30095,0.3009500000000001,0.3009500000000001,1.2719202621569003e-16,164.77,164.77,164.77,164.77,164.77,0.0,32.500000000000014,32.49999999999999,32.50000000000001,32.500000000000014,32.500000000000014,8.702335715267317e-15,58.95,45.08,53.765,55.515,45.08,5.4906944005289535
1 -> 2,0.3009500000000001,0.30094999999999983,0.30095,0.3009500000000001,0.3009500000000001,1.2719202621569003e-16,164.77,164.77,164.77,164.77,164.77,0.0,32.500000000000014,32.49999999999999,32.50000000000001,32.500000000000014,32.500000000000014,8.702335715267317e-15,35.27,8.72,21.23,20.465,8.72,9.962682871596385
