PHASE,EDA_MAX,EDA_MIN,EDA_MEAN,EDA_MEDIAN,EDA_MODE,EDA_SD,HR_MAX,HR_MIN,HR_MEAN,HR_MEDIAN,HR_MODE,HR_SD,SKT_MAX,SKT_MIN,SKT_MEAN,SKT_MEDIAN,SKT_MODE,SKT_SD,BVP_MAX,BVP_MIN,BVP_MEAN,BVP_MEDIAN,BVP_MODE,BVP_SD
1 -> 2,0.2497240000000001,0.2497239999999999,0.24972400000000003,0.24972400000000006,0.2497240000000001,9.51413198280327e-17,64.0,64.0,64.0,64.0,64.0,0.0,32.810000000000024,32.809999999999995,32.81000000000001,32.81000000000002,32.81000000000002,1.1234667099445444e-14,-87.24,-102.31,-95.51,-96.245,-102.31,5.6851868922666045
1 -> 2,0.2497240000000001,0.2497239999999999,0.24972400000000003,0.24972400000000006,0.2497240000000001,9.51413198280327e-17,64.0,64.0,64.0,64.0,64.0,0.0,32.810000000000024,32.809999999999995,32.81000000000001,32.81000000000002,32.81000000000002,1.1234667099445444e-14,-87.24,-102.31,-95.51,-96.245,-102.31,5.6851868922666045
1 -> 2,0.2497240000000001,0.2497239999999999,0.24972400000000003,0.24972400000000006,0.2497240000000001,9.51413198280327e-17,64.0,64.0,64.0,64.0,64.0,0.0,32.810000000000024,32.809999999999995,32.81000000000001,32.81000000000002,32.81000000000002,1.1234667099445444e-14,-96.27,-103.59,-100.625,-101.32,-103.59,2.8446572728537993
1 -> 2,0.2497240000000001,0.2497239999999999,0.24972400000000003,0.24972400000000006,0.2497240000000001,9.51413198280327e-17,64.0,64.0,64.0,64.0,64.0,0.0,32.810000000000024,32.809999999999995,32.81000000000001,32.81000000000002,32.81000000000002,1.1234667099445444e-14,-96.27,-103.59,-100.625,-101.32,-103.59,2.8446572728537993
1 -> 2,0.2497240000000001,0.2497239999999999,0.24972400000000003,0.24972400000000006,0.2497240000000001,9.51413198280327e-17,64.0,64.0,64.0,64.0,64.0,0.0,32.810000000000024,32.809999999999995,32.81000000000001,32.81000000000002,32.81000000000002,1.1234667099445444e-14,-85.69,-92.49,-88.6925,-88.29499999999999,-92.49,2.5547247894832035
1 -> 2,0.2497240000000001,0.2497239999999999,0.24972400000000003,0.24972400000000006,0.2497240000000001,9.51413198280327e-17,64.0,64.0,64.0,64.0,64.0,0.0,32.810000000000024,32.809999999999995,32.81000000000001,32.81000000000002,32.81000000000002,1.1234667099445444e-14,-85.69,-92.49,-88.6925,-88.29499999999999,-92.49,2.5547247894832035
1 -> 2,0.2497240000000001,0.2497239999999999,0.24972400000000003,0.24972400000000006,0.2497240000000001,9.51413198280327e-17,64.0,64.0,64.0,64.0,64.0,0.0,32.810000000000024,32.809999999999995,32.81000000000001,32.81000000000002,32.81000000000002,1.1234667099445444e-14,-70.11,-84.04,-78.06750000000001,-79.06,-84.04,5.272045973813204
1 -> 2,0.2497240000000001,0.2497239999999999,0.24972400000000003,0.24972400000000006,0.2497240000000001,9.51413198280327e-17,64.0,64.0,64.0,64.0,64.0,0.0,32.810000000000024,32.809999999999995,32.81000000000001,32.81000000000002,32.81000000000002,1.1234667099445444e-14,-70.11,-84.04,-78.06750000000001,-79.06,-84.04,5.272045973813204
1 -> 2,0.2484440000000001,0.24844399999999986,0.248444,0.24844400000000003,0.2484440000000001,1.0838898772828417e-16,64.0,64.0,64.0,64.0,64.0,0.0,32.810000000000024,32.809999999999995,32.81000000000001,32.81000000000002,32.81000000000002,1.1234667099445444e-14,-28.79,-61.39,-45.33,-45.57,-61.39,12.180287352932197
1 -> 2,0.2484440000000001,0.24844399999999986,0.248444,0.24844400000000003,0.2484440000000001,1.0838898772828417e-16,64.0,64.0,64.0,64.0,64.0,0.0,32.810000000000024,32.809999999999995,32.81000000000001,32.81000000000002,32.81000000000002,1.1234667099445444e-14,-28.79,-61.39,-45.33,-45.57,-61.39,12.180287352932197
1 -> 2,0.2484440000000001,0.24844399999999986,0.248444,0.24844400000000003,0.2484440000000001,1.0838898772828417e-16,64.0,64.0,64.0,64.0,64.0,0.0,32.810000000000024,32.809999999999995,32.81000000000001,32.81000000000002,32.81000000000002,1.1234667099445444e-14,6.28,-18.16,-5.260000000000001,-4.58,-18.16,9.132855522781469
1 -> 2,0.2484440000000001,0.24844399999999986,0.248444,0.24844400000000003,0.2484440000000001,1.0838898772828417e-16,64.0,64.0,64.0,64.0,64.0,0.0,32.810000000000024,32.809999999999995,32.81000000000001,32.81000000000002,32.81000000000002,1.1234667099445444e-14,6.28,-18.16,-5.260000000000001,-4.58,-18.16,9.132855522781469
1 -> 2,0.2484440000000001,0.24844399999999986,0.248444,0.24844400000000003,0.2484440000000001,1.0838898772828417e-16,64.0,64.0,64.0,64.0,64.0,0.0,32.810000000000024,32.809999999999995,32.81000000000001,32.81000000000002,32.81000000000002,1.1234667099445444e-14,26.57,12.04,19.427500000000002,19.549999999999997,12.04,5.411572668827427
1 -> 2,0.2484440000000001,0.24844399999999986,0.248444,0.24844400000000003,0.2484440000000001,1.0838898772828417e-16,64.0,64.0,64.0,64.0,64.0,0.0,32.810000000000024,32.809999999999995,32.81000000000001,32.81000000000002,32.81000000000002,1.1234667099445444e-14,26.57,12.04,19.427500000000002,19.549999999999997,12.04,5.411572668827427
1 -> 2,0.2484440000000001,0.24844399999999986,0.248444,0.24844400000000003,0.2484440000000001,1.0838898772828417e-16,64.0,64.0,64.0,64.0,64.0,0.0,32.810000000000024,32.809999999999995,32.81000000000001,32.81000000000002,32.81000000000002,1.1234667099445444e-14,39.36,30.89,35.58,36.035,30.89,3.192170108249245
1 -> 2,0.2484440000000001,0.24844399999999986,0.248444,0.24844400000000003,0.2484440000000001,1.0838898772828417e-16,64.0,64.0,64.0,64.0,64.0,0.0,32.810000000000024,32.809999999999995,32.81000000000001,32.81000000000002,32.81000000000002,1.1234667099445444e-14,39.36,30.89,35.58,36.035,30.89,3.192170108249245
1 -> 2,0.2484440000000001,0.24844399999999986,0.248444,0.24844400000000003,0.2484440000000001,1.0838898772828417e-16,64.0,64.0,64.0,64.0,64.0,0.0,32.810000000000024,32.809999999999995,32.81000000000001,32.81000000000002,32.81000000000002,1.1234667099445444e-14,42.06,40.43,41.2425,41.239999999999995,40.43,0.5988061038433068
1 -> 2,0.2484440000000001,0.24844399999999986,0.248444,0.24844400000000003,0.2484440000000001,1.0838898772828417e-16,64.0,64.0,64.0,64.0,64.0,0.0,32.810000000000024,32.809999999999995,32.81000000000001,32.81000000000002,32.81000000000002,1.1234667099445444e-14,42.06,40.43,41.2425,41.239999999999995,40.43,0.5988061038433068
1 -> 2,0.2484440000000001,0.24844399999999986,0.248444,0.24844400000000003,0.2484440000000001,1.0838898772828417e-16,64.0,64.0,64.0,64.0,64.0,0.0,32.810000000000024,32.809999999999995,32.81000000000001,32.81000000000002,32.81000000000002,1.1234667099445444e-14,44.43,42.81,43.755,43.89,42.81,0.6255197838597897
1 -> 2,0.2484440000000001,0.24844399999999986,0.248444,0.24844400000000003,0.2484440000000001,1.0838898772828417e-16,64.0,64.0,64.0,64.0,64.0,0.0,32.810000000000024,32.809999999999995,32.81000000000001,32.81000000000002,32.81000000000002,1.1234667099445444e-14,44.43,42.81,43.755,43.89,42.81,0.6255197838597897
1 -> 2,0.2484440000000001,0.24844399999999986,0.248444,0.24844400000000003,0.2484440000000001,1.0838898772828417e-16,64.0,64.0,64.0,64.0,64.0,0.0,32.810000000000024,32.809999999999995,32.81000000000001,32.81000000000002,32.81000000000002,1.1234667099445444e-14,44.3,42.19,43.3775,43.51,42.19,0.7970688489710285
1 -> 2,0.2484440000000001,0.24844399999999986,0.248444,0.24844400000000003,0.2484440000000001,1.0838898772828417e-16,64.0,64.0,64.0,64.0,64.0,0.0,32.810000000000024,32.809999999999995,32.81000000000001,32.81000000000002,32.81000000000002,1.1234667099445444e-14,44.3,42.19,43.3775,43.51,42.19,0.7970688489710285
1 -> 2,0.2484440000000001,0.24844399999999986,0.248444,0.24844400000000003,0.2484440000000001,1.0838898772828417e-16,64.0,64.0,64.0,64.0,64.0,0.0,32.810000000000024,32.809999999999995,32.81000000000001,32.81000000000002,32.81000000000002,1.1234667099445444e-14,40.89,34.42,37.86,38.065,34.42,2.4236645807536976
1 -> 2,0.2484440000000001,0.24844399999999986,0.248444,0.24844400000000003,0.2484440000000001,1.0838898772828417e-16,64.0,64.0,64.0,64.0,64.0,0.0,32.810000000000024,32.809999999999995,32.81000000000001,32.81000000000002,32.81000000000002,1.1234667099445444e-14,40.89,34.42,37.86,38.065,34.42,2.4236645807536976
1 -> 2,0.2471630000000001,0.24716299999999988,0.247163,0.24716300000000002,0.2471630000000001,1.0007415106216802e-16,64.0,64.0,64.0,64.0,64.0,0.0,32.810000000000024,32.809999999999995,32.81000000000001,32.81000000000002,32.81000000000002,1.1234667099445444e-14,31.66,23.89,27.6775,27.58,23.89,2.9007186609528337
1 -> 2,0.2471630000000001,0.24716299999999988,0.247163,0.24716300000000002,0.2471630000000001,1.0007415106216802e-16,64.0,64.0,64.0,64.0,64.0,0.0,32.810000000000024,32.809999999999995,32.81000000000001,32.81000000000002,32.81000000000002,1.1234667099445444e-14,31.66,23.89,27.6775,27.58,23.89,2.9007186609528337
1 -> 2,0.2471630000000001,0.24716299999999988,0.247163,0.24716300000000002,0.2471630000000001,1.0007415106216802e-16,64.0,64.0,64.0,64.0,64.0,0.0,32.810000000000024,32.809999999999995,32.81000000000001,32.81000000000002,32.81000000000002,1.1234667099445444e-14,21.78,17.02,19.2775,19.155,17.02,1.7763216910233355
1 -> 2,0.2471630000000001,0.24716299999999988,0.247163,0.24716300000000002,0.2471630000000001,1.0007415106216802e-16,64.0,64.0,64.0,64.0,64.0,0.0,32.810000000000024,32.809999999999995,32.81000000000001,32.81000000000002,32.81000000000002,1.1234667099445444e-14,21.78,17.02,19.2775,19.155,17.02,1.7763216910233355
1 -> 2,0.2471630000000001,0.24716299999999988,0.247163,0.24716300000000002,0.2471630000000001,1.0007415106216802e-16,64.0,64.0,64.0,64.0,64.0,0.0,32.810000000000024,32.809999999999995,32.81000000000001,32.81000000000002,32.81000000000002,1.1234667099445444e-14,15.86,12.78,14.315000000000001,14.31,12.78,1.1449126604243662
1 -> 2,0.2471630000000001,0.24716299999999988,0.247163,0.24716300000000002,0.2471630000000001,1.0007415106216802e-16,64.0,64.0,64.0,64.0,64.0,0.0,32.810000000000024,32.809999999999995,32.81000000000001,32.81000000000002,32.81000000000002,1.1234667099445444e-14,15.86,12.78,14.315000000000001,14.31,12.78,1.1449126604243662
1 -> 2,0.2471630000000001,0.24716299999999988,0.247163,0.24716300000000002,0.2471630000000001,1.0007415106216802e-16,64.0,64.0,64.0,64.0,64.0,0.0,32.810000000000024,32.809999999999995,32.81000000000001,32.81000000000002,32.81000000000002,1.1234667099445444e-14,11.69,6.89,9.475,9.66,6.89,1.7918356509456996
1 -> 2,0.2471630000000001,0.24716299999999988,0.247163,0.24716300000000002,0.2471630000000001,1.0007415106216802e-16,64.0,64.0,64.0,64.0,64.0,0.0,32.810000000000024,32.809999999999995,32.81000000000001,32.81000000000002,32.81000000000002,1.1234667099445444e-14,11.69,6.89,9.475,9.66,6.89,1.7918356509456996
1 -> 2,0.2484440000000001,0.24844399999999986,0.248444,0.24844400000000003,0.2484440000000001,1.0838898772828417e-16,64.5,64.5,64.5,64.5,64.5,0.0,32.79000000000001,32.79,32.790000000000006,32.790000000000006,32.79,7.105427357601002e-15,4.29,-7.03,-1.1225,-0.875,-7.03,4.23233608660749
1 -> 2,0.2484440000000001,0.24844399999999986,0.248444,0.24844400000000003,0.2484440000000001,1.0838898772828417e-16,64.5,64.5,64.5,64.5,64.5,0.0,32.79000000000001,32.79,32.790000000000006,32.790000000000006,32.79,7.105427357601002e-15,4.29,-7.03,-1.1225,-0.875,-7.03,4.23233608660749
1 -> 2,0.2484440000000001,0.24844399999999986,0.248444,0.24844400000000003,0.2484440000000001,1.0838898772828417e-16,64.5,64.5,64.5,64.5,64.5,0.0,32.79000000000001,32.79,32.790000000000006,32.790000000000006,32.79,7.105427357601002e-15,-11.44,-22.55,-17.3,-17.605,-22.55,4.163718290182467
1 -> 2,0.2484440000000001,0.24844399999999986,0.248444,0.24844400000000003,0.2484440000000001,1.0838898772828417e-16,64.5,64.5,64.5,64.5,64.5,0.0,32.79000000000001,32.79,32.790000000000006,32.790000000000006,32.79,7.105427357601002e-15,-11.44,-22.55,-17.3,-17.605,-22.55,4.163718290182467
1 -> 2,0.2484440000000001,0.24844399999999986,0.248444,0.24844400000000003,0.2484440000000001,1.0838898772828417e-16,64.5,64.5,64.5,64.5,64.5,0.0,32.79000000000001,32.79,32.790000000000006,32.790000000000006,32.79,7.105427357601002e-15,-23.01,-25.33,-24.4225,-24.675,-25.33,0.8627680742818421
1 -> 2,0.2484440000000001,0.24844399999999986,0.248444,0.24844400000000003,0.2484440000000001,1.0838898772828417e-16,64.5,64.5,64.5,64.5,64.5,0.0,32.79000000000001,32.79,32.790000000000006,32.790000000000006,32.79,7.105427357601002e-15,-23.01,-25.33,-24.4225,-24.675,-25.33,0.8627680742818421
1 -> 2,0.2484440000000001,0.24844399999999986,0.248444,0.24844400000000003,0.2484440000000001,1.0838898772828417e-16,64.5,64.5,64.5,64.5,64.5,0.0,32.79000000000001,32.79,32.790000000000006,32.790000000000006,32.79,7.105427357601002e-15,-9.15,-20.16,-14.672500000000001,-14.690000000000001,-20.16,4.120299594689687
1 -> 2,0.2484440000000001,0.24844399999999986,0.248444,0.24844400000000003,0.2484440000000001,1.0838898772828417e-16,64.5,64.5,64.5,64.5,64.5,0.0,32.79000000000001,32.79,32.790000000000006,32.790000000000006,32.79,7.105427357601002e-15,-9.15,-20.16,-14.672500000000001,-14.690000000000001,-20.16,4.120299594689687
1 -> 2,0.2497240000000001,0.2497239999999999,0.24972400000000003,0.24972400000000006,0.2497240000000001,9.51413198280327e-17,64.5,64.5,64.5,64.5,64.5,0.0,32.79000000000001,32.79,32.790000000000006,32.790000000000006,32.79,7.105427357601002e-15,-0.09,-6.05,-2.88,-2.69,-6.05,2.217678966847997
1 -> 2,0.2497240000000001,0.2497239999999999,0.24972400000000003,0.24972400000000006,0.2497240000000001,9.51413198280327e-17,64.5,64.5,64.5,64.5,64.5,0.0,32.79000000000001,32.79,32.790000000000006,32.790000000000006,32.79,7.105427357601002e-15,-0.09,-6.05,-2.88,-2.69,-6.05,2.217678966847997
1 -> 2,0.2497240000000001,0.2497239999999999,0.24972400000000003,0.24972400000000006,0.2497240000000001,9.51413198280327e-17,64.5,64.5,64.5,64.5,64.5,0.0,32.79000000000001,32.79,32.790000000000006,32.790000000000006,32.79,7.105427357601002e-15,10.0,1.8,5.75,5.6,1.8,3.0717584540455003
1 -> 2,0.2497240000000001,0.2497239999999999,0.24972400000000003,0.24972400000000006,0.2497240000000001,9.51413198280327e-17,64.5,64.5,64.5,64.5,64.5,0.0,32.79000000000001,32.79,32.790000000000006,32.790000000000006,32.79,7.105427357601002e-15,10.0,1.8,5.75,5.6,1.8,3.0717584540455003
1 -> 2,0.2497240000000001,0.2497239999999999,0.24972400000000003,0.24972400000000006,0.2497240000000001,9.51413198280327e-17,64.5,64.5,64.5,64.5,64.5,0.0,32.79000000000001,32.79,32.790000000000006,32.790000000000006,32.79,7.105427357601002e-15,14.97,12.59,14.1325,14.485,12.59,0.9206621258637723
1 -> 2,0.2497240000000001,0.2497239999999999,0.24972400000000003,0.24972400000000006,0.2497240000000001,9.51413198280327e-17,64.5,64.5,64.5,64.5,64.5,0.0,32.79000000000001,32.79,32.790000000000006,32.790000000000006,32.79,7.105427357601002e-15,14.97,12.59,14.1325,14.485,12.59,0.9206621258637723
1 -> 2,0.2497240000000001,0.2497239999999999,0.24972400000000003,0.24972400000000006,0.2497240000000001,9.51413198280327e-17,64.5,64.5,64.5,64.5,64.5,0.0,32.79000000000001,32.79,32.790000000000006,32.790000000000006,32.79,7.105427357601002e-15,13.73,10.73,12.1525,12.075,10.73,1.124107979688784
1 -> 2,0.2497240000000001,0.2497239999999999,0.24972400000000003,0.24972400000000006,0.2497240000000001,9.51413198280327e-17,64.5,64.5,64.5,64.5,64.5,0.0,32.79000000000001,32.79,32.790000000000006,32.790000000000006,32.79,7.105427357601002e-15,13.73,10.73,12.1525,12.075,10.73,1.124107979688784
1 -> 2,0.2497240000000001,0.2497239999999999,0.24972400000000003,0.24972400000000006,0.2497240000000001,9.51413198280327e-17,64.5,64.5,64.5,64.5,64.5,0.0,32.79000000000001,32.79,32.790000000000006,32.790000000000006,32.79,7.105427357601002e-15,10.01,6.66,8.497499999999999,8.66,6.66,1.2549975099576889
1 -> 2,0.2497240000000001,0.2497239999999999,0.24972400000000003,0.24972400000000006,0.2497240000000001,9.51413198280327e-17,64.5,64.5,64.5,64.5,64.5,0.0,32.79000000000001,32.79,32.790000000000006,32.790000000000006,32.79,7.105427357601002e-15,10.01,6.66,8.497499999999999,8.66,6.66,1.2549975099576889
1 -> 2,0.2497240000000001,0.2497239999999999,0.24972400000000003,0.24972400000000006,0.2497240000000001,9.51413198280327e-17,64.5,64.5,64.5,64.5,64.5,0.0,32.79000000000001,32.79,32.790000000000006,32.790000000000006,32.79,7.105427357601002e-15,4.86,-0.88,1.95,1.9100000000000001,-0.88,2.1448193397113897
1 -> 2,0.2497240000000001,0.2497239999999999,0.24972400000000003,0.24972400000000006,0.2497240000000001,9.51413198280327e-17,64.5,64.5,64.5,64.5,64.5,0.0,32.79000000000001,32.79,32.790000000000006,32.790000000000006,32.79,7.105427357601002e-15,4.86,-0.88,1.95,1.9100000000000001,-0.88,2.1448193397113897
1 -> 2,0.2497240000000001,0.2497239999999999,0.24972400000000003,0.24972400000000006,0.2497240000000001,9.51413198280327e-17,64.5,64.5,64.5,64.5,64.5,0.0,32.79000000000001,32.79,32.790000000000006,32.790000000000006,32.79,7.105427357601002e-15,-2.56,-7.72,-5.0975,-5.055,-7.72,1.9223732077825053
1 -> 2,0.2497240000000001,0.2497239999999999,0.24972400000000003,0.24972400000000006,0.2497240000000001,9.51413198280327e-17,64.5,64.5,64.5,64.5,64.5,0.0,32.79000000000001,32.79,32.790000000000006,32.790000000000006,32.79,7.105427357601002e-15,-2.56,-7.72,-5.0975,-5.055,-7.72,1.9223732077825053
1 -> 2,0.2497240000000001,0.2497239999999999,0.24972400000000003,0.24972400000000006,0.2497240000000001,9.51413198280327e-17,64.5,64.5,64.5,64.5,64.5,0.0,32.79000000000001,32.79,32.790000000000006,32.790000000000006,32.79,7.105427357601002e-15,-9.46,-12.15,-11.0825,-11.36,-12.15,1.0427457743860675
1 -> 2,0.2497240000000001,0.2497239999999999,0.24972400000000003,0.24972400000000006,0.2497240000000001,9.51413198280327e-17,64.5,64.5,64.5,64.5,64.5,0.0,32.79000000000001,32.79,32.790000000000006,32.790000000000006,32.79,7.105427357601002e-15,-9.46,-12.15,-11.0825,-11.36,-12.15,1.0427457743860675
1 -> 2,0.2510050000000001,0.251005,0.2510050000000001,0.2510050000000001,0.2510050000000001,5.551115123125783e-17,64.5,64.5,64.5,64.5,64.5,0.0,32.79000000000001,32.79,32.790000000000006,32.790000000000006,32.79,7.105427357601002e-15,-12.0,-13.61,-12.5175,-12.23,-13.61,0.6464663564331864
1 -> 2,0.2510050000000001,0.251005,0.2510050000000001,0.2510050000000001,0.2510050000000001,5.551115123125783e-17,64.5,64.5,64.5,64.5,64.5,0.0,32.79000000000001,32.79,32.790000000000006,32.790000000000006,32.79,7.105427357601002e-15,-12.0,-13.61,-12.5175,-12.23,-13.61,0.6464663564331864
1 -> 2,0.2510050000000001,0.251005,0.2510050000000001,0.2510050000000001,0.2510050000000001,5.551115123125783e-17,64.5,64.5,64.5,64.5,64.5,0.0,32.79000000000001,32.79,32.790000000000006,32.790000000000006,32.79,7.105427357601002e-15,-15.86,-26.22,-20.9525,-20.865000000000002,-26.22,3.8868327401626117
1 -> 2,0.2510050000000001,0.251005,0.2510050000000001,0.2510050000000001,0.2510050000000001,5.551115123125783e-17,64.5,64.5,64.5,64.5,64.5,0.0,32.79000000000001,32.79,32.790000000000006,32.790000000000006,32.79,7.105427357601002e-15,-15.86,-26.22,-20.9525,-20.865000000000002,-26.22,3.8868327401626117
1 -> 2,0.2510050000000001,0.251005,0.2510050000000001,0.2510050000000001,0.2510050000000001,5.551115123125783e-17,64.5,64.5,64.5,64.5,64.5,0.0,32.79000000000001,32.79,32.790000000000006,32.790000000000006,32.79,7.105427357601002e-15,-25.2,-29.72,-28.0625,-28.665,-29.72,1.710151674559891
1 -> 2,0.2510050000000001,0.251005,0.2510050000000001,0.2510050000000001,0.2510050000000001,5.551115123125783e-17,64.5,64.5,64.5,64.5,64.5,0.0,32.79000000000001,32.79,32.790000000000006,32.790000000000006,32.79,7.105427357601002e-15,-25.2,-29.72,-28.0625,-28.665,-29.72,1.710151674559891
1 -> 2,0.2510050000000001,0.251005,0.2510050000000001,0.2510050000000001,0.2510050000000001,5.551115123125783e-17,64.5,64.5,64.5,64.5,64.5,0.0,32.79000000000001,32.79,32.790000000000006,32.790000000000006,32.79,7.105427357601002e-15,-0.69,-20.1,-10.48,-10.565000000000001,-20.1,7.252265163381715
1 -> 2,0.2510050000000001,0.251005,0.2510050000000001,0.2510050000000001,0.2510050000000001,5.551115123125783e-17,64.5,64.5,64.5,64.5,64.5,0.0,32.79000000000001,32.79,32.790000000000006,32.790000000000006,32.79,7.105427357601002e-15,-0.69,-20.1,-10.48,-10.565000000000001,-20.1,7.252265163381715
1 -> 2,0.2484440000000001,0.24844399999999986,0.248444,0.24844400000000003,0.2484440000000001,1.0838898772828417e-16,66.33,66.33,66.33,66.33,66.33,0.0,32.810000000000024,32.809999999999995,32.81000000000001,32.81000000000002,32.81000000000002,1.1234667099445444e-14,24.28,5.62,14.9,14.850000000000001,5.62,6.949892085493127
1 -> 2,0.2484440000000001,0.24844399999999986,0.248444,0.24844400000000003,0.2484440000000001,1.0838898772828417e-16,66.33,66.33,66.33,66.33,66.33,0.0,32.810000000000024,32.809999999999995,32.81000000000001,32.81000000000002,32.81000000000002,1.1234667099445444e-14,24.28,5.62,14.9,14.850000000000001,5.62,6.949892085493127
1 -> 2,0.2484440000000001,0.24844399999999986,0.248444,0.24844400000000003,0.2484440000000001,1.0838898772828417e-16,66.33,66.33,66.33,66.33,66.33,0.0,32.810000000000024,32.809999999999995,32.81000000000001,32.81000000000002,32.81000000000002,1.1234667099445444e-14,45.82,30.62,38.72,39.22,30.62,5.701754116059373
1 -> 2,0.2484440000000001,0.24844399999999986,0.248444,0.24844400000000003,0.2484440000000001,1.0838898772828417e-16,66.33,66.33,66.33,66.33,66.33,0.0,32.810000000000024,32.809999999999995,32.81000000000001,32.81000000000002,32.81000000000002,1.1234667099445444e-14,45.82,30.62,38.72,39.22,30.62,5.701754116059373
1 -> 2,0.2484440000000001,0.24844399999999986,0.248444,0.24844400000000003,0.2484440000000001,1.0838898772828417e-16,66.33,66.33,66.33,66.33,66.33,0.0,32.810000000000024,32.809999999999995,32.81000000000001,32.81000000000002,32.81000000000002,1.1234667099445444e-14,50.1,48.46,49.519999999999996,49.76,48.46,0.6278933030380238
1 -> 2,0.2484440000000001,0.24844399999999986,0.248444,0.24844400000000003,0.2484440000000001,1.0838898772828417e-16,66.33,66.33,66.33,66.33,66.33,0.0,32.810000000000024,32.809999999999995,32.81000000000001,32.81000000000002,32.81000000000002,1.1234667099445444e-14,50.1,48.46,49.519999999999996,49.76,48.46,0.6278933030380238
1 -> 2,0.2484440000000001,0.24844399999999986,0.248444,0.24844400000000003,0.2484440000000001,1.0838898772828417e-16,66.33,66.33,66.33,66.33,66.33,0.0,32.810000000000024,32.809999999999995,32.81000000000001,32.81000000000002,32.81000000000002,1.1234667099445444e-14,49.06,48.32,48.725,48.760000000000005,49.06,0.3386369737639418
1 -> 2,0.2484440000000001,0.24844399999999986,0.248444,0.24844400000000003,0.2484440000000001,1.0838898772828417e-16,66.33,66.33,66.33,66.33,66.33,0.0,32.810000000000024,32.809999999999995,32.81000000000001,32.81000000000002,32.81000000000002,1.1234667099445444e-14,49.06,48.32,48.725,48.760000000000005,49.06,0.3386369737639418
1 -> 2,0.2484440000000001,0.24844399999999986,0.248444,0.24844400000000003,0.2484440000000001,1.0838898772828417e-16,66.33,66.33,66.33,66.33,66.33,0.0,32.810000000000024,32.809999999999995,32.81000000000001,32.81000000000002,32.81000000000002,1.1234667099445444e-14,62.37,50.99,56.43,56.18,50.99,4.279135426695443
1 -> 2,0.2484440000000001,0.24844399999999986,0.248444,0.24844400000000003,0.2484440000000001,1.0838898772828417e-16,66.33,66.33,66.33,66.33,66.33,0.0,32.810000000000024,32.809999999999995,32.81000000000001,32.81000000000002,32.81000000000002,1.1234667099445444e-14,62.37,50.99,56.43,56.18,50.99,4.279135426695443
1 -> 2,0.2484440000000001,0.24844399999999986,0.248444,0.24844400000000003,0.2484440000000001,1.0838898772828417e-16,66.33,66.33,66.33,66.33,66.33,0.0,32.810000000000024,32.809999999999995,32.81000000000001,32.81000000000002,32.81000000000002,1.1234667099445444e-14,67.08,63.26,65.5525,65.935,63.26,1.42016504322561
1 -> 2,0.2484440000000001,0.24844399999999986,0.248444,0.24844400000000003,0.2484440000000001,1.0838898772828417e-16,66.33,66.33,66.33,66.33,66.33,0.0,32.810000000000024,32.809999999999995,32.81000000000001,32.81000000000002,32.81000000000002,1.1234667099445444e-14,67.08,63.26,65.5525,65.935,63.26,1.42016504322561
1 -> 2,0.2484440000000001,0.24844399999999986,0.248444,0.24844400000000003,0.2484440000000001,1.0838898772828417e-16,66.33,66.33,66.33,66.33,66.33,0.0,32.810000000000024,32.809999999999995,32.81000000000001,32.81000000000002,32.81000000000002,1.1234667099445444e-14,58.82,44.52,51.51500000000001,51.36,44.52,5.3443498201371495
1 -> 2,0.2484440000000001,0.24844399999999986,0.248444,0.24844400000000003,0.2484440000000001,1.0838898772828417e-16,66.33,66.33,66.33,66.33,66.33,0.0,32.810000000000024,32.809999999999995,32.81000000000001,32.81000000000002,32.81000000000002,1.1234667099445444e-14,58.82,44.52,51.51500000000001,51.36,44.52,5.3443498201371495
1 -> 2,0.2484440000000001,0.24844399999999986,0.248444,0.24844400000000003,0.2484440000000001,1.0838898772828417e-16,66.33,66.33,66.33,66.33,66.33,0.0,32.810000000000024,32.809999999999995,32.81000000000001,32.81000000000002,32.81000000000002,1.1234667099445444e-14,40.61,30.22,35.3225,35.230000000000004,30.22,3.8750959665536024
1 -> 2,0.2484440000000001,0.24844399999999986,0.248444,0.24844400000000003,0.2484440000000001,1.0838898772828417e-16,66.33,66.33,66.33,66.33,66.33,0.0,32.810000000000024,32.809999999999995,32.81000000000001,32.81000000000002,32.81000000000002,1.1234667099445444e-14,40.61,30.22,35.3225,35.230000000000004,30.22,3.8750959665536024
1 -> 2,0.2471630000000001,0.24716299999999988,0.247163,0.24716300000000002,0.2471630000000001,1.0007415106216802e-16,66.33,66.33,66.33,66.33,66.33,0.0,32.810000000000024,32.809999999999995,32.81000000000001,32.81000000000002,32.81000000000002,1.1234667099445444e-14,27.41,24.2,25.335,24.865000000000002,24.2,1.2812201216028414
1 -> 2,0.2471630000000001,0.24716299999999988,0.247163,0.24716300000000002,0.2471630000000001,1.0007415106216802e-16,66.33,66.33,66.33,66.33,66.33,0.0,32.810000000000024,32.809999999999995,32.81000000000001,32.81000000000002,32.81000000000002,1.1234667099445444e-14,27.41,24.2,25.335,24.865000000000002,24.2,1.2812201216028414
1 -> 2,0.2471630000000001,0.24716299999999988,0.247163,0.24716300000000002,0.2471630000000001,1.0007415106216802e-16,66.33,66.33,66.33,66.33,66.33,0.0,32.810000000000024,32.809999999999995,32.81000000000001,32.81000000000002,32.81000000000002,1.1234667099445444e-14,24.41,17.31,21.945,23.03,17.31,2.82819288592557
1 -> 2,0.2471630000000001,0.24716299999999988,0.247163,0.24716300000000002,0.2471630000000001,1.0007415106216802e-16,66.33,66.33,66.33,66.33,66.33,0.0,32.810000000000024,32.809999999999995,32.81000000000001,32.81000000000002,32.81000000000002,1.1234667099445444e-14,24.41,17.31,21.945,23.03,17.31,2.82819288592557
1 -> 2,0.2471630000000001,0.24716299999999988,0.247163,0.24716300000000002,0.2471630000000001,1.0007415106216802e-16,66.33,66.33,66.33,66.33,66.33,0.0,32.810000000000024,32.809999999999995,32.81000000000001,32.81000000000002,32.81000000000002,1.1234667099445444e-14,9.48,-27.01,-8.145,-7.525,-27.01,13.663854690386605
1 -> 2,0.2471630000000001,0.24716299999999988,0.247163,0.24716300000000002,0.2471630000000001,1.0007415106216802e-16,66.33,66.33,66.33,66.33,66.33,0.0,32.810000000000024,32.809999999999995,32.81000000000001,32.81000000000002,32.81000000000002,1.1234667099445444e-14,9.48,-27.01,-8.145,-7.525,-27.01,13.663854690386605
1 -> 2,0.2471630000000001,0.24716299999999988,0.247163,0.24716300000000002,0.2471630000000001,1.0007415106216802e-16,66.33,66.33,66.33,66.33,66.33,0.0,32.810000000000024,32.809999999999995,32.81000000000001,32.81000000000002,32.81000000000002,1.1234667099445444e-14,-39.62,-71.88,-56.05,-56.35,-71.88,12.000510405811912
1 -> 2,0.2471630000000001,0.24716299999999988,0.247163,0.24716300000000002,0.2471630000000001,1.0007415106216802e-16,66.33,66.33,66.33,66.33,66.33,0.0,32.810000000000024,32.809999999999995,32.81000000000001,32.81000000000002,32.81000000000002,1.1234667099445444e-14,-39.62,-71.88,-56.05,-56.35,-71.88,12.000510405811912
1 -> 2,0.2484440000000001,0.24844399999999986,0.248444,0.24844400000000003,0.2484440000000001,1.0838898772828417e-16,66.33,66.33,66.33,66.33,66.33,0.0,32.810000000000024,32.809999999999995,32.81000000000001,32.81000000000002,32.81000000000002,1.1234667099445444e-14,-82.69,-119.29,-100.8325,-100.675,-119.29,13.671408806337409
1 -> 2,0.2484440000000001,0.24844399999999986,0.248444,0.24844400000000003,0.2484440000000001,1.0838898772828417e-16,66.33,66.33,66.33,66.33,66.33,0.0,32.810000000000024,32.809999999999995,32.81000000000001,32.81000000000002,32.81000000000002,1.1234667099445444e-14,-82.69,-119.29,-100.8325,-100.675,-119.29,13.671408806337409
1 -> 2,0.2484440000000001,0.24844399999999986,0.248444,0.24844400000000003,0.2484440000000001,1.0838898772828417e-16,66.33,66.33,66.33,66.33,66.33,0.0,32.810000000000024,32.809999999999995,32.81000000000001,32.81000000000002,32.81000000000002,1.1234667099445444e-14,-130.45,-148.78,-141.05,-142.485,-148.78,6.982474489749325
1 -> 2,0.2484440000000001,0.24844399999999986,0.248444,0.24844400000000003,0.2484440000000001,1.0838898772828417e-16,66.33,66.33,66.33,66.33,66.33,0.0,32.810000000000024,32.809999999999995,32.81000000000001,32.81000000000002,32.81000000000002,1.1234667099445444e-14,-130.45,-148.78,-141.05,-142.485,-148.78,6.982474489749325
1 -> 2,0.2484440000000001,0.24844399999999986,0.248444,0.24844400000000003,0.2484440000000001,1.0838898772828417e-16,66.33,66.33,66.33,66.33,66.33,0.0,32.810000000000024,32.809999999999995,32.81000000000001,32.81000000000002,32.81000000000002,1.1234667099445444e-14,-143.69,-149.46,-146.885,-147.195,-149.46,2.203911295855623
1 -> 2,0.2484440000000001,0.24844399999999986,0.248444,0.24844400000000003,0.2484440000000001,1.0838898772828417e-16,66.33,66.33,66.33,66.33,66.33,0.0,32.810000000000024,32.809999999999995,32.81000000000001,32.81000000000002,32.81000000000002,1.1234667099445444e-14,-143.69,-149.46,-146.885,-147.195,-149.46,2.203911295855623
1 -> 2,0.2484440000000001,0.24844399999999986,0.248444,0.24844400000000003,0.2484440000000001,1.0838898772828417e-16,66.33,66.33,66.33,66.33,66.33,0.0,32.810000000000024,32.809999999999995,32.81000000000001,32.81000000000002,32.81000000000002,1.1234667099445444e-14,-133.72,-141.62,-138.2625,-138.85500000000002,-141.62,2.951070780242318
1 -> 2,0.2484440000000001,0.24844399999999986,0.248444,0.24844400000000003,0.2484440000000001,1.0838898772828417e-16,66.33,66.33,66.33,66.33,66.33,0.0,32.810000000000024,32.809999999999995,32.81000000000001,32.81000000000002,32.81000000000002,1.1234667099445444e-14,-133.72,-141.62,-138.2625,-138.85500000000002,-141.62,2.951070780242318
1 -> 2,0.2471630000000001,0.24716299999999988,0.247163,0.24716300000000002,0.2471630000000001,1.0007415106216802e-16,62.75,62.75,62.75,62.75,62.75,0.0,32.77000000000002,32.769999999999996,32.77000000000001,32.77000000000001,32.769999999999996,1.1234667099445444e-14,-65.94,-125.63,-98.72250000000001,-101.66,-125.63,22.478864934644722
1 -> 2,0.2471630000000001,0.24716299999999988,0.247163,0.24716300000000002,0.2471630000000001,1.0007415106216802e-16,62.75,62.75,62.75,62.75,62.75,0.0,32.77000000000002,32.769999999999996,32.77000000000001,32.77000000000001,32.769999999999996,1.1234667099445444e-14,-65.94,-125.63,-98.72250000000001,-101.66,-125.63,22.478864934644722
1 -> 2,0.2471630000000001,0.24716299999999988,0.247163,0.24716300000000002,0.2471630000000001,1.0007415106216802e-16,62.75,62.75,62.75,62.75,62.75,0.0,32.77000000000002,32.769999999999996,32.77000000000001,32.77000000000001,32.769999999999996,1.1234667099445444e-14,30.03,-37.7,-1.2925000000000004,1.25,-37.7,25.441687615997488
1 -> 2,0.2471630000000001,0.24716299999999988,0.247163,0.24716300000000002,0.2471630000000001,1.0007415106216802e-16,62.75,62.75,62.75,62.75,62.75,0.0,32.77000000000002,32.769999999999996,32.77000000000001,32.77000000000001,32.769999999999996,1.1234667099445444e-14,30.03,-37.7,-1.2925000000000004,1.25,-37.7,25.441687615997488
1 -> 2,0.2471630000000001,0.24716299999999988,0.247163,0.24716300000000002,0.2471630000000001,1.0007415106216802e-16,62.75,62.75,62.75,62.75,62.75,0.0,32.77000000000002,32.769999999999996,32.77000000000001,32.77000000000001,32.769999999999996,1.1234667099445444e-14,47.49,40.81,45.1675,46.185,40.81,2.571792905737162
1 -> 2,0.2471630000000001,0.24716299999999988,0.247163,0.24716300000000002,0.2471630000000001,1.0007415106216802e-16,62.75,62.75,62.75,62.75,62.75,0.0,32.77000000000002,32.769999999999996,32.77000000000001,32.77000000000001,32.769999999999996,1.1234667099445444e-14,47.49,40.81,45.1675,46.185,40.81,2.571792905737162
1 -> 2,0.2471630000000001,0.24716299999999988,0.247163,0.24716300000000002,0.2471630000000001,1.0007415106216802e-16,62.75,62.75,62.75,62.75,62.75,0.0,32.77000000000002,32.769999999999996,32.77000000000001,32.77000000000001,32.769999999999996,1.1234667099445444e-14,43.44,33.69,38.3925,38.22,33.69,3.659476567762116
1 -> 2,0.2471630000000001,0.24716299999999988,0.247163,0.24716300000000002,0.2471630000000001,1.0007415106216802e-16,62.75,62.75,62.75,62.75,62.75,0.0,32.77000000000002,32.769999999999996,32.77000000000001,32.77000000000001,32.769999999999996,1.1234667099445444e-14,43.44,33.69,38.3925,38.22,33.69,3.659476567762116
1 -> 2,0.2471630000000001,0.24716299999999988,0.247163,0.24716300000000002,0.2471630000000001,1.0007415106216802e-16,62.75,62.75,62.75,62.75,62.75,0.0,32.77000000000002,32.769999999999996,32.77000000000001,32.77000000000001,32.769999999999996,1.1234667099445444e-14,31.76,27.44,29.7125,29.825000000000003,27.44,1.595953868380913
1 -> 2,0.2471630000000001,0.24716299999999988,0.247163,0.24716300000000002,0.2471630000000001,1.0007415106216802e-16,62.75,62.75,62.75,62.75,62.75,0.0,32.77000000000002,32.769999999999996,32.77000000000001,32.77000000000001,32.769999999999996,1.1234667099445444e-14,31.76,27.44,29.7125,29.825000000000003,27.44,1.595953868380913
1 -> 2,0.2471630000000001,0.24716299999999988,0.247163,0.24716300000000002,0.2471630000000001,1.0007415106216802e-16,62.75,62.75,62.75,62.75,62.75,0.0,32.77000000000002,32.769999999999996,32.77000000000001,32.77000000000001,32.769999999999996,1.1234667099445444e-14,25.13,21.32,22.6725,22.12,21.32,1.533286910529141
1 -> 2,0.2471630000000001,0.24716299999999988,0.247163,0.24716300000000002,0.2471630000000001,1.0007415106216802e-16,62.75,62.75,62.75,62.75,62.75,0.0,32.77000000000002,32.769999999999996,32.77000000000001,32.77000000000001,32.769999999999996,1.1234667099445444e-14,25.13,21.32,22.6725,22.12,21.32,1.533286910529141
1 -> 2,0.2471630000000001,0.24716299999999988,0.247163,0.24716300000000002,0.2471630000000001,1.0007415106216802e-16,62.75,62.75,62.75,62.75,62.75,0.0,32.77000000000002,32.769999999999996,32.77000000000001,32.77000000000001,32.769999999999996,1.1234667099445444e-14,31.46,23.28,27.587500000000006,27.805,23.28,3.0991722685259044
1 -> 2,0.2471630000000001,0.24716299999999988,0.247163,0.24716300000000002,0.2471630000000001,1.0007415106216802e-16,62.75,62.75,62.75,62.75,62.75,0.0,32.77000000000002,32.769999999999996,32.77000000000001,32.77000000000001,32.769999999999996,1.1234667099445444e-14,31.46,23.28,27.587500000000006,27.805,23.28,3.0991722685259044
1 -> 2,0.2471630000000001,0.24716299999999988,0.247163,0.24716300000000002,0.2471630000000001,1.0007415106216802e-16,62.75,62.75,62.75,62.75,62.75,0.0,32.77000000000002,32.769999999999996,32.77000000000001,32.77000000000001,32.769999999999996,1.1234667099445444e-14,31.92,23.79,28.4625,29.07,23.79,3.1139956245955145
1 -> 2,0.2471630000000001,0.24716299999999988,0.247163,0.24716300000000002,0.2471630000000001,1.0007415106216802e-16,62.75,62.75,62.75,62.75,62.75,0.0,32.77000000000002,32.769999999999996,32.77000000000001,32.77000000000001,32.769999999999996,1.1234667099445444e-14,31.92,23.79,28.4625,29.07,23.79,3.1139956245955145
1 -> 2,0.2471630000000001,0.24716299999999988,0.247163,0.24716300000000002,0.2471630000000001,1.0007415106216802e-16,62.75,62.75,62.75,62.75,62.75,0.0,32.77000000000002,32.769999999999996,32.77000000000001,32.77000000000001,32.769999999999996,1.1234667099445444e-14,19.88,14.13,16.314999999999998,15.625,14.13,2.2613989033339514
1 -> 2,0.2471630000000001,0.24716299999999988,0.247163,0.24716300000000002,0.2471630000000001,1.0007415106216802e-16,62.75,62.75,62.75,62.75,62.75,0.0,32.77000000000002,32.769999999999996,32.77000000000001,32.77000000000001,32.769999999999996,1.1234667099445444e-14,19.88,14.13,16.314999999999998,15.625,14.13,2.2613989033339514
1 -> 2,0.2471630000000001,0.24716299999999988,0.247163,0.24716300000000002,0.2471630000000001,1.0007415106216802e-16,62.75,62.75,62.75,62.75,62.75,0.0,32.77000000000002,32.769999999999996,32.77000000000001,32.77000000000001,32.769999999999996,1.1234667099445444e-14,23.55,15.11,19.04,18.75,15.11,3.173129370195927
1 -> 2,0.2471630000000001,0.24716299999999988,0.247163,0.24716300000000002,0.2471630000000001,1.0007415106216802e-16,62.75,62.75,62.75,62.75,62.75,0.0,32.77000000000002,32.769999999999996,32.77000000000001,32.77000000000001,32.769999999999996,1.1234667099445444e-14,23.55,15.11,19.04,18.75,15.11,3.173129370195927
1 -> 2,0.2471630000000001,0.24716299999999988,0.247163,0.24716300000000002,0.2471630000000001,1.0007415106216802e-16,62.75,62.75,62.75,62.75,62.75,0.0,32.77000000000002,32.769999999999996,32.77000000000001,32.77000000000001,32.769999999999996,1.1234667099445444e-14,36.99,26.98,32.015,32.045,26.98,3.7298827059305775
1 -> 2,0.2471630000000001,0.24716299999999988,0.247163,0.24716300000000002,0.2471630000000001,1.0007415106216802e-16,62.75,62.75,62.75,62.75,62.75,0.0,32.77000000000002,32.769999999999996,32.77000000000001,32.77000000000001,32.769999999999996,1.1234667099445444e-14,36.99,26.98,32.015,32.045,26.98,3.7298827059305775
1 -> 2,0.2471630000000001,0.24716299999999988,0.247163,0.24716300000000002,0.2471630000000001,1.0007415106216802e-16,62.75,62.75,62.75,62.75,62.75,0.0,32.77000000000002,32.769999999999996,32.77000000000001,32.77000000000001,32.769999999999996,1.1234667099445444e-14,49.04,40.26,44.8225,44.995,40.26,3.2883763090619667
1 -> 2,0.2471630000000001,0.24716299999999988,0.247163,0.24716300000000002,0.2471630000000001,1.0007415106216802e-16,62.75,62.75,62.75,62.75,62.75,0.0,32.77000000000002,32.769999999999996,32.77000000000001,32.77000000000001,32.769999999999996,1.1234667099445444e-14,49.04,40.26,44.8225,44.995,40.26,3.2883763090619667
1 -> 2,0.2484440000000001,0.24844399999999986,0.248444,0.24844400000000003,0.2484440000000001,1.0838898772828417e-16,62.75,62.75,62.75,62.75,62.75,0.0,32.77000000000002,32.769999999999996,32.77000000000001,32.77000000000001,32.769999999999996,1.1234667099445444e-14,50.64,44.98,48.755,49.7,44.98,2.3027103595545855
1 -> 2,0.2484440000000001,0.24844399999999986,0.248444,0.24844400000000003,0.2484440000000001,1.0838898772828417e-16,62.75,62.75,62.75,62.75,62.75,0.0,32.77000000000002,32.769999999999996,32.77000000000001,32.77000000000001,32.769999999999996,1.1234667099445444e-14,50.64,44.98,48.755,49.7,44.98,2.3027103595545855
1 -> 2,0.2484440000000001,0.24844399999999986,0.248444,0.24844400000000003,0.2484440000000001,1.0838898772828417e-16,62.75,62.75,62.75,62.75,62.75,0.0,32.77000000000002,32.769999999999996,32.77000000000001,32.77000000000001,32.769999999999996,1.1234667099445444e-14,39.52,20.66,29.9775,29.865,20.66,7.0549712083041145
1 -> 2,0.2484440000000001,0.24844399999999986,0.248444,0.24844400000000003,0.2484440000000001,1.0838898772828417e-16,62.75,62.75,62.75,62.75,62.75,0.0,32.77000000000002,32.769999999999996,32.77000000000001,32.77000000000001,32.769999999999996,1.1234667099445444e-14,39.52,20.66,29.9775,29.865,20.66,7.0549712083041145
1 -> 2,0.2484440000000001,0.24844399999999986,0.248444,0.24844400000000003,0.2484440000000001,1.0838898772828417e-16,62.75,62.75,62.75,62.75,62.75,0.0,32.77000000000002,32.769999999999996,32.77000000000001,32.77000000000001,32.769999999999996,1.1234667099445444e-14,15.63,4.99,10.05,9.79,4.99,3.964246460552119
1 -> 2,0.2484440000000001,0.24844399999999986,0.248444,0.24844400000000003,0.2484440000000001,1.0838898772828417e-16,62.75,62.75,62.75,62.75,62.75,0.0,32.77000000000002,32.769999999999996,32.77000000000001,32.77000000000001,32.769999999999996,1.1234667099445444e-14,15.63,4.99,10.05,9.79,4.99,3.964246460552119
1 -> 2,0.2484440000000001,0.24844399999999986,0.248444,0.24844400000000003,0.2484440000000001,1.0838898772828417e-16,62.75,62.75,62.75,62.75,62.75,0.0,32.77000000000002,32.769999999999996,32.77000000000001,32.77000000000001,32.769999999999996,1.1234667099445444e-14,2.11,-5.67,-1.8575,-1.935,-5.67,2.900098058686982
1 -> 2,0.2484440000000001,0.24844399999999986,0.248444,0.24844400000000003,0.2484440000000001,1.0838898772828417e-16,62.75,62.75,62.75,62.75,62.75,0.0,32.77000000000002,32.769999999999996,32.77000000000001,32.77000000000001,32.769999999999996,1.1234667099445444e-14,2.11,-5.67,-1.8575,-1.935,-5.67,2.900098058686982
1 -> 2,0.2510050000000001,0.251005,0.2510050000000001,0.2510050000000001,0.2510050000000001,5.551115123125783e-17,62.0,62.0,62.0,62.0,62.0,0.0,32.810000000000024,32.809999999999995,32.81000000000001,32.81000000000002,32.81000000000002,1.1234667099445444e-14,-8.02,-15.28,-11.6075,-11.565,-15.28,2.7026410693985987
1 -> 2,0.2510050000000001,0.251005,0.2510050000000001,0.2510050000000001,0.2510050000000001,5.551115123125783e-17,62.0,62.0,62.0,62.0,62.0,0.0,32.810000000000024,32.809999999999995,32.81000000000001,32.81000000000002,32.81000000000002,1.1234667099445444e-14,-8.02,-15.28,-11.6075,-11.565,-15.28,2.7026410693985987
1 -> 2,0.2510050000000001,0.251005,0.2510050000000001,0.2510050000000001,0.2510050000000001,5.551115123125783e-17,62.0,62.0,62.0,62.0,62.0,0.0,32.810000000000024,32.809999999999995,32.81000000000001,32.81000000000002,32.81000000000002,1.1234667099445444e-14,-17.96,-27.09,-22.46,-22.395000000000003,-27.09,3.4084233891933082
1 -> 2,0.2510050000000001,0.251005,0.2510050000000001,0.2510050000000001,0.2510050000000001,5.551115123125783e-17,62.0,62.0,62.0,62.0,62.0,0.0,32.810000000000024,32.809999999999995,32.81000000000001,32.81000000000002,32.81000000000002,1.1234667099445444e-14,-17.96,-27.09,-22.46,-22.395000000000003,-27.09,3.4084233891933082
1 -> 2,0.2510050000000001,0.251005,0.2510050000000001,0.2510050000000001,0.2510050000000001,5.551115123125783e-17,62.0,62.0,62.0,62.0,62.0,0.0,32.810000000000024,32.809999999999995,32.81000000000001,32.81000000000002,32.81000000000002,1.1234667099445444e-14,-30.02,-34.41,-32.65,-33.085,-34.41,1.6936203824942582
1 -> 2,0.2510050000000001,0.251005,0.2510050000000001,0.2510050000000001,0.2510050000000001,5.551115123125783e-17,62.0,62.0,62.0,62.0,62.0,0.0,32.810000000000024,32.809999999999995,32.81000000000001,32.81000000000002,32.81000000000002,1.1234667099445444e-14,-30.02,-34.41,-32.65,-33.085,-34.41,1.6936203824942582
1 -> 2,0.2510050000000001,0.251005,0.2510050000000001,0.2510050000000001,0.2510050000000001,5.551115123125783e-17,62.0,62.0,62.0,62.0,62.0,0.0,32.810000000000024,32.809999999999995,32.81000000000001,32.81000000000002,32.81000000000002,1.1234667099445444e-14,-33.82,-34.35,-34.0125,-33.94,-34.35,0.21299941314473123
1 -> 2,0.2510050000000001,0.251005,0.2510050000000001,0.2510050000000001,0.2510050000000001,5.551115123125783e-17,62.0,62.0,62.0,62.0,62.0,0.0,32.810000000000024,32.809999999999995,32.81000000000001,32.81000000000002,32.81000000000002,1.1234667099445444e-14,-33.82,-34.35,-34.0125,-33.94,-34.35,0.21299941314473123
1 -> 2,0.2535660000000001,0.2535659999999999,0.253566,0.25356600000000007,0.2535660000000001,9.614813431917819e-17,62.0,62.0,62.0,62.0,62.0,0.0,32.810000000000024,32.809999999999995,32.81000000000001,32.81000000000002,32.81000000000002,1.1234667099445444e-14,-33.08,-34.1,-33.760000000000005,-33.93,-34.1,0.40267853183401847
1 -> 2,0.2535660000000001,0.2535659999999999,0.253566,0.25356600000000007,0.2535660000000001,9.614813431917819e-17,62.0,62.0,62.0,62.0,62.0,0.0,32.810000000000024,32.809999999999995,32.81000000000001,32.81000000000002,32.81000000000002,1.1234667099445444e-14,-33.08,-34.1,-33.760000000000005,-33.93,-34.1,0.40267853183401847
1 -> 2,0.2535660000000001,0.2535659999999999,0.253566,0.25356600000000007,0.2535660000000001,9.614813431917819e-17,62.0,62.0,62.0,62.0,62.0,0.0,32.810000000000024,32.809999999999995,32.81000000000001,32.81000000000002,32.81000000000002,1.1234667099445444e-14,-25.81,-31.77,-28.877499999999998,-28.965,-31.77,2.2323684171749076
1 -> 2,0.2535660000000001,0.2535659999999999,0.253566,0.25356600000000007,0.2535660000000001,9.614813431917819e-17,62.0,62.0,62.0,62.0,62.0,0.0,32.810000000000024,32.809999999999995,32.81000000000001,32.81000000000002,32.81000000000002,1.1234667099445444e-14,-25.81,-31.77,-28.877499999999998,-28.965,-31.77,2.2323684171749076
1 -> 2,0.2535660000000001,0.2535659999999999,0.253566,0.25356600000000007,0.2535660000000001,9.614813431917819e-17,62.0,62.0,62.0,62.0,62.0,0.0,32.810000000000024,32.809999999999995,32.81000000000001,32.81000000000002,32.81000000000002,1.1234667099445444e-14,-16.48,-23.77,-20.372500000000002,-20.62,-23.77,2.711838629048565
1 -> 2,0.2535660000000001,0.2535659999999999,0.253566,0.25356600000000007,0.2535660000000001,9.614813431917819e-17,62.0,62.0,62.0,62.0,62.0,0.0,32.810000000000024,32.809999999999995,32.81000000000001,32.81000000000002,32.81000000000002,1.1234667099445444e-14,-16.48,-23.77,-20.372500000000002,-20.62,-23.77,2.711838629048565
1 -> 2,0.2535660000000001,0.2535659999999999,0.253566,0.25356600000000007,0.2535660000000001,9.614813431917819e-17,62.0,62.0,62.0,62.0,62.0,0.0,32.810000000000024,32.809999999999995,32.81000000000001,32.81000000000002,32.81000000000002,1.1234667099445444e-14,7.23,-12.29,-2.9724999999999993,-3.415,-12.29,7.306553137423966
1 -> 2,0.2535660000000001,0.2535659999999999,0.253566,0.25356600000000007,0.2535660000000001,9.614813431917819e-17,62.0,62.0,62.0,62.0,62.0,0.0,32.810000000000024,32.809999999999995,32.81000000000001,32.81000000000002,32.81000000000002,1.1234667099445444e-14,7.23,-12.29,-2.9724999999999993,-3.415,-12.29,7.306553137423966
1 -> 2,0.2548470000000001,0.25484699999999977,0.25484699999999993,0.254847,0.2548470000000001,1.4686870114880517e-16,62.0,62.0,62.0,62.0,62.0,0.0,32.810000000000024,32.809999999999995,32.81000000000001,32.81000000000002,32.81000000000002,1.1234667099445444e-14,35.01,14.61,24.947499999999998,25.085,14.61,7.598303675821334
1 -> 2,0.2548470000000001,0.25484699999999977,0.25484699999999993,0.254847,0.2548470000000001,1.4686870114880517e-16,62.0,62.0,62.0,62.0,62.0,0.0,32.810000000000024,32.809999999999995,32.81000000000001,32.81000000000002,32.81000000000002,1.1234667099445444e-14,35.01,14.61,24.947499999999998,25.085,14.61,7.598303675821334
1 -> 2,0.2548470000000001,0.25484699999999977,0.25484699999999993,0.254847,0.2548470000000001,1.4686870114880517e-16,62.0,62.0,62.0,62.0,62.0,0.0,32.810000000000024,32.809999999999995,32.81000000000001,32.81000000000002,32.81000000000002,1.1234667099445444e-14,61.12,41.57,51.4075,51.47,41.57,7.293234450502738
1 -> 2,0.2548470000000001,0.25484699999999977,0.25484699999999993,0.254847,0.2548470000000001,1.4686870114880517e-16,62.0,62.0,62.0,62.0,62.0,0.0,32.810000000000024,32.809999999999995,32.81000000000001,32.81000000000002,32.81000000000002,1.1234667099445444e-14,61.12,41.57,51.4075,51.47,41.57,7.293234450502738
1 -> 2,0.2548470000000001,0.25484699999999977,0.25484699999999993,0.254847,0.2548470000000001,1.4686870114880517e-16,62.0,62.0,62.0,62.0,62.0,0.0,32.810000000000024,32.809999999999995,32.81000000000001,32.81000000000002,32.81000000000002,1.1234667099445444e-14,81.35,67.12,74.63749999999999,75.03999999999999,67.12,5.329335676235824
1 -> 2,0.2548470000000001,0.25484699999999977,0.25484699999999993,0.254847,0.2548470000000001,1.4686870114880517e-16,62.0,62.0,62.0,62.0,62.0,0.0,32.810000000000024,32.809999999999995,32.81000000000001,32.81000000000002,32.81000000000002,1.1234667099445444e-14,81.35,67.12,74.63749999999999,75.03999999999999,67.12,5.329335676235824
1 -> 2,0.2548470000000001,0.25484699999999977,0.25484699999999993,0.254847,0.2548470000000001,1.4686870114880517e-16,62.0,62.0,62.0,62.0,62.0,0.0,32.810000000000024,32.809999999999995,32.81000000000001,32.81000000000002,32.81000000000002,1.1234667099445444e-14,84.66,80.64,83.175,83.7,80.64,1.5210933567667693
1 -> 2,0.2548470000000001,0.25484699999999977,0.25484699999999993,0.254847,0.2548470000000001,1.4686870114880517e-16,62.0,62.0,62.0,62.0,62.0,0.0,32.810000000000024,32.809999999999995,32.81000000000001,32.81000000000002,32.81000000000002,1.1234667099445444e-14,84.66,80.64,83.175,83.7,80.64,1.5210933567667693
1 -> 2,0.2548470000000001,0.25484699999999977,0.25484699999999993,0.254847,0.2548470000000001,1.4686870114880517e-16,62.0,62.0,62.0,62.0,62.0,0.0,32.810000000000024,32.809999999999995,32.81000000000001,32.81000000000002,32.81000000000002,1.1234667099445444e-14,76.68,64.36,70.39750000000001,70.275,64.36,4.597892859778272
1 -> 2,0.2548470000000001,0.25484699999999977,0.25484699999999993,0.254847,0.2548470000000001,1.4686870114880517e-16,62.0,62.0,62.0,62.0,62.0,0.0,32.810000000000024,32.809999999999995,32.81000000000001,32.81000000000002,32.81000000000002,1.1234667099445444e-14,76.68,64.36,70.39750000000001,70.275,64.36,4.597892859778272
1 -> 2,0.2548470000000001,0.25484699999999977,0.25484699999999993,0.254847,0.2548470000000001,1.4686870114880517e-16,62.0,62.0,62.0,62.0,62.0,0.0,32.810000000000024,32.809999999999995,32.81000000000001,32.81000000000002,32.81000000000002,1.1234667099445444e-14,60.46,44.48,52.885,53.3,44.48,5.975811660352091
1 -> 2,0.2548470000000001,0.25484699999999977,0.25484699999999993,0.254847,0.2548470000000001,1.4686870114880517e-16,62.0,62.0,62.0,62.0,62.0,0.0,32.810000000000024,32.809999999999995,32.81000000000001,32.81000000000002,32.81000000000002,1.1234667099445444e-14,60.46,44.48,52.885,53.3,44.48,5.975811660352091
1 -> 2,0.2548470000000001,0.25484699999999977,0.25484699999999993,0.254847,0.2548470000000001,1.4686870114880517e-16,62.0,62.0,62.0,62.0,62.0,0.0,32.810000000000024,32.809999999999995,32.81000000000001,32.81000000000002,32.81000000000002,1.1234667099445444e-14,38.25,25.88,31.377499999999998,30.689999999999998,25.88,4.662855214350967
1 -> 2,0.2548470000000001,0.25484699999999977,0.25484699999999993,0.254847,0.2548470000000001,1.4686870114880517e-16,62.0,62.0,62.0,62.0,62.0,0.0,32.810000000000024,32.809999999999995,32.81000000000001,32.81000000000002,32.81000000000002,1.1234667099445444e-14,38.25,25.88,31.377499999999998,30.689999999999998,25.88,4.662855214350967
1 -> 2,0.2548470000000001,0.25484699999999977,0.25484699999999993,0.254847,0.2548470000000001,1.4686870114880517e-16,62.0,62.0,62.0,62.0,62.0,0.0,32.810000000000024,32.809999999999995,32.81000000000001,32.81000000000002,32.81000000000002,1.1234667099445444e-14,24.05,18.24,21.294999999999998,21.445,18.24,2.1697062013092934
1 -> 2,0.2548470000000001,0.25484699999999977,0.25484699999999993,0.254847,0.2548470000000001,1.4686870114880517e-16,62.0,62.0,62.0,62.0,62.0,0.0,32.810000000000024,32.809999999999995,32.81000000000001,32.81000000000002,32.81000000000002,1.1234667099445444e-14,24.05,18.24,21.294999999999998,21.445,18.24,2.1697062013092934
1 -> 2,0.2548470000000001,0.25484699999999977,0.25484699999999993,0.254847,0.2548470000000001,1.4686870114880517e-16,69.83,69.83,69.83,69.83,69.83,0.0,32.750000000000014,32.74999999999998,32.75,32.75000000000001,32.750000000000014,1.464821375527116e-14,16.17,14.65,15.25,15.09,14.65,0.5818934610390469
1 -> 2,0.2548470000000001,0.25484699999999977,0.25484699999999993,0.254847,0.2548470000000001,1.4686870114880517e-16,69.83,69.83,69.83,69.83,69.83,0.0,32.750000000000014,32.74999999999998,32.75,32.75000000000001,32.750000000000014,1.464821375527116e-14,16.17,14.65,15.25,15.09,14.65,0.5818934610390469
1 -> 2,0.2548470000000001,0.25484699999999977,0.25484699999999993,0.254847,0.2548470000000001,1.4686870114880517e-16,69.83,69.83,69.83,69.83,69.83,0.0,32.750000000000014,32.74999999999998,32.75,32.75000000000001,32.750000000000014,1.464821375527116e-14,16.31,13.22,15.2425,15.719999999999999,13.22,1.2270161979370924
1 -> 2,0.2548470000000001,0.25484699999999977,0.25484699999999993,0.254847,0.2548470000000001,1.4686870114880517e-16,69.83,69.83,69.83,69.83,69.83,0.0,32.750000000000014,32.74999999999998,32.75,32.75000000000001,32.750000000000014,1.464821375527116e-14,16.31,13.22,15.2425,15.719999999999999,13.22,1.2270161979370924
1 -> 2,0.2548470000000001,0.25484699999999977,0.25484699999999993,0.254847,0.2548470000000001,1.4686870114880517e-16,69.83,69.83,69.83,69.83,69.83,0.0,32.750000000000014,32.74999999999998,32.75,32.75000000000001,32.750000000000014,1.464821375527116e-14,10.6,5.39,7.637499999999999,7.28,5.39,1.9768709492528844
1 -> 2,0.2548470000000001,0.25484699999999977,0.25484699999999993,0.254847,0.2548470000000001,1.4686870114880517e-16,69.83,69.83,69.83,69.83,69.83,0.0,32.750000000000014,32.74999999999998,32.75,32.75000000000001,32.750000000000014,1.464821375527116e-14,10.6,5.39,7.637499999999999,7.28,5.39,1.9768709492528844
1 -> 2,0.2548470000000001,0.25484699999999977,0.25484699999999993,0.254847,0.2548470000000001,1.4686870114880517e-16,69.83,69.83,69.83,69.83,69.83,0.0,32.750000000000014,32.74999999999998,32.75,32.75000000000001,32.750000000000014,1.464821375527116e-14,4.9,3.61,4.297499999999999,4.34,3.61,0.4815275173860785
1 -> 2,0.2548470000000001,0.25484699999999977,0.25484699999999993,0.254847,0.2548470000000001,1.4686870114880517e-16,69.83,69.83,69.83,69.83,69.83,0.0,32.750000000000014,32.74999999999998,32.75,32.75000000000001,32.750000000000014,1.464821375527116e-14,4.9,3.61,4.297499999999999,4.34,3.61,0.4815275173860785
1 -> 2,0.2586890000000001,0.25868899999999984,0.25868900000000006,0.25868900000000006,0.2586890000000001,1.3018518929051675e-16,69.83,69.83,69.83,69.83,69.83,0.0,32.750000000000014,32.74999999999998,32.75,32.75000000000001,32.750000000000014,1.464821375527116e-14,3.02,-0.91,1.385,1.7149999999999999,-0.91,1.4848653137574463
1 -> 2,0.2586890000000001,0.25868899999999984,0.25868900000000006,0.25868900000000006,0.2586890000000001,1.3018518929051675e-16,69.83,69.83,69.83,69.83,69.83,0.0,32.750000000000014,32.74999999999998,32.75,32.75000000000001,32.750000000000014,1.464821375527116e-14,3.02,-0.91,1.385,1.7149999999999999,-0.91,1.4848653137574463
1 -> 2,0.2586890000000001,0.25868899999999984,0.25868900000000006,0.25868900000000006,0.2586890000000001,1.3018518929051675e-16,69.83,69.83,69.83,69.83,69.83,0.0,32.750000000000014,32.74999999999998,32.75,32.75000000000001,32.750000000000014,1.464821375527116e-14,-4.27,-22.34,-12.7525,-12.2,-22.34,6.774578861449618
1 -> 2,0.2586890000000001,0.25868899999999984,0.25868900000000006,0.25868900000000006,0.2586890000000001,1.3018518929051675e-16,69.83,69.83,69.83,69.83,69.83,0.0,32.750000000000014,32.74999999999998,32.75,32.75000000000001,32.750000000000014,1.464821375527116e-14,-4.27,-22.34,-12.7525,-12.2,-22.34,6.774578861449618
1 -> 2,0.2586890000000001,0.25868899999999984,0.25868900000000006,0.25868900000000006,0.2586890000000001,1.3018518929051675e-16,69.83,69.83,69.83,69.83,69.83,0.0,32.750000000000014,32.74999999999998,32.75,32.75000000000001,32.750000000000014,1.464821375527116e-14,-29.59,-47.02,-38.847500000000004,-39.39,-47.02,6.530751775255282
1 -> 2,0.2586890000000001,0.25868899999999984,0.25868900000000006,0.25868900000000006,0.2586890000000001,1.3018518929051675e-16,69.83,69.83,69.83,69.83,69.83,0.0,32.750000000000014,32.74999999999998,32.75,32.75000000000001,32.750000000000014,1.464821375527116e-14,-29.59,-47.02,-38.847500000000004,-39.39,-47.02,6.530751775255282
1 -> 2,0.2586890000000001,0.25868899999999984,0.25868900000000006,0.25868900000000006,0.2586890000000001,1.3018518929051675e-16,69.83,69.83,69.83,69.83,69.83,0.0,32.750000000000014,32.74999999999998,32.75,32.75000000000001,32.750000000000014,1.464821375527116e-14,-50.34,-53.37,-52.3475,-52.84,-53.37,1.223098013243417
1 -> 2,0.2586890000000001,0.25868899999999984,0.25868900000000006,0.25868900000000006,0.2586890000000001,1.3018518929051675e-16,69.83,69.83,69.83,69.83,69.83,0.0,32.750000000000014,32.74999999999998,32.75,32.75000000000001,32.750000000000014,1.464821375527116e-14,-50.34,-53.37,-52.3475,-52.84,-53.37,1.223098013243417
1 -> 2,0.2586890000000001,0.25868899999999984,0.25868900000000006,0.25868900000000006,0.2586890000000001,1.3018518929051675e-16,69.83,69.83,69.83,69.83,69.83,0.0,32.750000000000014,32.74999999999998,32.75,32.75000000000001,32.750000000000014,1.464821375527116e-14,-51.09,-52.9,-51.9425,-51.89,-52.9,0.6831681710969835
1 -> 2,0.2586890000000001,0.25868899999999984,0.25868900000000006,0.25868900000000006,0.2586890000000001,1.3018518929051675e-16,69.83,69.83,69.83,69.83,69.83,0.0,32.750000000000014,32.74999999999998,32.75,32.75000000000001,32.750000000000014,1.464821375527116e-14,-51.09,-52.9,-51.9425,-51.89,-52.9,0.6831681710969835
1 -> 2,0.2586890000000001,0.25868899999999984,0.25868900000000006,0.25868900000000006,0.2586890000000001,1.3018518929051675e-16,69.83,69.83,69.83,69.83,69.83,0.0,32.750000000000014,32.74999999999998,32.75,32.75000000000001,32.750000000000014,1.464821375527116e-14,-48.74,-50.75,-49.9075,-50.07,-50.75,0.7612284479707782
1 -> 2,0.2586890000000001,0.25868899999999984,0.25868900000000006,0.25868900000000006,0.2586890000000001,1.3018518929051675e-16,69.83,69.83,69.83,69.83,69.83,0.0,32.750000000000014,32.74999999999998,32.75,32.75000000000001,32.750000000000014,1.464821375527116e-14,-48.74,-50.75,-49.9075,-50.07,-50.75,0.7612284479707782
1 -> 2,0.2586890000000001,0.25868899999999984,0.25868900000000006,0.25868900000000006,0.2586890000000001,1.3018518929051675e-16,69.83,69.83,69.83,69.83,69.83,0.0,32.750000000000014,32.74999999999998,32.75,32.75000000000001,32.750000000000014,1.464821375527116e-14,-40.44,-47.23,-43.9925,-44.15,-47.23,2.539501673557235
1 -> 2,0.2586890000000001,0.25868899999999984,0.25868900000000006,0.25868900000000006,0.2586890000000001,1.3018518929051675e-16,69.83,69.83,69.83,69.83,69.83,0.0,32.750000000000014,32.74999999999998,32.75,32.75000000000001,32.750000000000014,1.464821375527116e-14,-40.44,-47.23,-43.9925,-44.15,-47.23,2.539501673557235
1 -> 2,0.2586890000000001,0.25868899999999984,0.25868900000000006,0.25868900000000006,0.2586890000000001,1.3018518929051675e-16,69.83,69.83,69.83,69.83,69.83,0.0,32.750000000000014,32.74999999999998,32.75,32.75000000000001,32.750000000000014,1.464821375527116e-14,-28.67,-37.66,-33.185,-33.205,-37.66,3.354180227715855
1 -> 2,0.2586890000000001,0.25868899999999984,0.25868900000000006,0.25868900000000006,0.2586890000000001,1.3018518929051675e-16,69.83,69.83,69.83,69.83,69.83,0.0,32.750000000000014,32.74999999999998,32.75,32.75000000000001,32.750000000000014,1.464821375527116e-14,-28.67,-37.66,-33.185,-33.205,-37.66,3.354180227715855
1 -> 2,0.25740800000000014,0.257408,0.2574080000000001,0.2574080000000001,0.25740800000000014,4.8074067159589095e-17,69.83,69.83,69.83,69.83,69.83,0.0,32.750000000000014,32.74999999999998,32.75,32.75000000000001,32.750000000000014,1.464821375527116e-14,-18.71,-25.79,-22.115000000000002,-21.98,-25.79,2.642011544259411
1 -> 2,0.25740800000000014,0.257408,0.2574080000000001,0.2574080000000001,0.25740800000000014,4.8074067159589095e-17,69.83,69.83,69.83,69.83,69.83,0.0,32.750000000000014,32.74999999999998,32.75,32.75000000000001,32.750000000000014,1.464821375527116e-14,-18.71,-25.79,-22.115000000000002,-21.98,-25.79,2.642011544259411
1 -> 2,0.25740800000000014,0.257408,0.2574080000000001,0.2574080000000001,0.25740800000000014,4.8074067159589095e-17,69.83,69.83,69.83,69.83,69.83,0.0,32.750000000000014,32.74999999999998,32.75,32.75000000000001,32.750000000000014,1.464821375527116e-14,-11.52,-16.79,-14.122499999999999,-14.09,-16.79,1.9646548679093738
1 -> 2,0.25740800000000014,0.257408,0.2574080000000001,0.2574080000000001,0.25740800000000014,4.8074067159589095e-17,69.83,69.83,69.83,69.83,69.83,0.0,32.750000000000014,32.74999999999998,32.75,32.75000000000001,32.750000000000014,1.464821375527116e-14,-11.52,-16.79,-14.122499999999999,-14.09,-16.79,1.9646548679093738
1 -> 2,0.25740800000000014,0.257408,0.2574080000000001,0.2574080000000001,0.25740800000000014,4.8074067159589095e-17,69.83,69.83,69.83,69.83,69.83,0.0,32.750000000000014,32.74999999999998,32.75,32.75000000000001,32.750000000000014,1.464821375527116e-14,-6.91,-9.99,-8.3225,-8.195,-9.99,1.1530692737212278
1 -> 2,0.25740800000000014,0.257408,0.2574080000000001,0.2574080000000001,0.25740800000000014,4.8074067159589095e-17,69.83,69.83,69.83,69.83,69.83,0.0,32.750000000000014,32.74999999999998,32.75,32.75000000000001,32.750000000000014,1.464821375527116e-14,-6.91,-9.99,-8.3225,-8.195,-9.99,1.1530692737212278
1 -> 2,0.25740800000000014,0.257408,0.2574080000000001,0.2574080000000001,0.25740800000000014,4.8074067159589095e-17,69.83,69.83,69.83,69.83,69.83,0.0,32.750000000000014,32.74999999999998,32.75,32.75000000000001,32.750000000000014,1.464821375527116e-14,-3.72,-6.23,-5.04,-5.105,-6.23,0.9369364973145192
1 -> 2,0.25740800000000014,0.257408,0.2574080000000001,0.2574080000000001,0.25740800000000014,4.8074067159589095e-17,69.83,69.83,69.83,69.83,69.83,0.0,32.750000000000014,32.74999999999998,32.75,32.75000000000001,32.750000000000014,1.464821375527116e-14,-3.72,-6.23,-5.04,-5.105,-6.23,0.9369364973145192
1 -> 2,0.2586890000000001,0.25868899999999984,0.25868900000000006,0.25868900000000006,0.2586890000000001,1.3018518929051675e-16,75.29,75.29,75.29,75.29,75.29,0.0,32.810000000000024,32.809999999999995,32.81000000000001,32.81000000000002,32.81000000000002,1.1234667099445444e-14,1.06,-2.64,-0.8250000000000001,-0.86,-2.64,1.3800996340844383
1 -> 2,0.2586890000000001,0.25868899999999984,0.25868900000000006,0.25868900000000006,0.2586890000000001,1.3018518929051675e-16,75.29,75.29,75.29,75.29,75.29,0.0,32.810000000000024,32.809999999999995,32.81000000000001,32.81000000000002,32.81000000000002,1.1234667099445444e-14,1.06,-2.64,-0.8250000000000001,-0.86,-2.64,1.3800996340844383
1 -> 2,0.2586890000000001,0.25868899999999984,0.25868900000000006,0.25868900000000006,0.2586890000000001,1.3018518929051675e-16,75.29,75.29,75.29,75.29,75.29,0.0,32.810000000000024,32.809999999999995,32.81000000000001,32.81000000000002,32.81000000000002,1.1234667099445444e-14,4.85,2.39,3.8474999999999997,4.075,2.39,0.9548396462233855
1 -> 2,0.2586890000000001,0.25868899999999984,0.25868900000000006,0.25868900000000006,0.2586890000000001,1.3018518929051675e-16,75.29,75.29,75.29,75.29,75.29,0.0,32.810000000000024,32.809999999999995,32.81000000000001,32.81000000000002,32.81000000000002,1.1234667099445444e-14,4.85,2.39,3.8474999999999997,4.075,2.39,0.9548396462233855
1 -> 2,0.2586890000000001,0.25868899999999984,0.25868900000000006,0.25868900000000006,0.2586890000000001,1.3018518929051675e-16,75.29,75.29,75.29,75.29,75.29,0.0,32.810000000000024,32.809999999999995,32.81000000000001,32.81000000000002,32.81000000000002,1.1234667099445444e-14,4.4,-1.14,1.8875000000000004,2.145,-1.14,2.0923835093022505
1 -> 2,0.2586890000000001,0.25868899999999984,0.25868900000000006,0.25868900000000006,0.2586890000000001,1.3018518929051675e-16,75.29,75.29,75.29,75.29,75.29,0.0,32.810000000000024,32.809999999999995,32.81000000000001,32.81000000000002,32.81000000000002,1.1234667099445444e-14,4.4,-1.14,1.8875000000000004,2.145,-1.14,2.0923835093022505
1 -> 2,0.2586890000000001,0.25868899999999984,0.25868900000000006,0.25868900000000006,0.2586890000000001,1.3018518929051675e-16,75.29,75.29,75.29,75.29,75.29,0.0,32.810000000000024,32.809999999999995,32.81000000000001,32.81000000000002,32.81000000000002,1.1234667099445444e-14,-3.44,-7.47,-5.7524999999999995,-6.05,-7.47,1.53070857775084
1 -> 2,0.2586890000000001,0.25868899999999984,0.25868900000000006,0.25868900000000006,0.2586890000000001,1.3018518929051675e-16,75.29,75.29,75.29,75.29,75.29,0.0,32.810000000000024,32.809999999999995,32.81000000000001,32.81000000000002,32.81000000000002,1.1234667099445444e-14,-3.44,-7.47,-5.7524999999999995,-6.05,-7.47,1.53070857775084
1 -> 2,0.2586890000000001,0.25868899999999984,0.25868900000000006,0.25868900000000006,0.2586890000000001,1.3018518929051675e-16,75.29,75.29,75.29,75.29,75.29,0.0,32.810000000000024,32.809999999999995,32.81000000000001,32.81000000000002,32.81000000000002,1.1234667099445444e-14,-7.77,-8.38,-8.0175,-7.959999999999999,-8.38,0.23025800746119598
1 -> 2,0.2586890000000001,0.25868899999999984,0.25868900000000006,0.25868900000000006,0.2586890000000001,1.3018518929051675e-16,75.29,75.29,75.29,75.29,75.29,0.0,32.810000000000024,32.809999999999995,32.81000000000001,32.81000000000002,32.81000000000002,1.1234667099445444e-14,-7.77,-8.38,-8.0175,-7.959999999999999,-8.38,0.23025800746119598
1 -> 2,0.2586890000000001,0.25868899999999984,0.25868900000000006,0.25868900000000006,0.2586890000000001,1.3018518929051675e-16,75.29,75.29,75.29,75.29,75.29,0.0,32.810000000000024,32.809999999999995,32.81000000000001,32.81000000000002,32.81000000000002,1.1234667099445444e-14,-8.94,-10.77,-9.89,-9.925,-10.77,0.6874954545304283
1 -> 2,0.2586890000000001,0.25868899999999984,0.25868900000000006,0.25868900000000006,0.2586890000000001,1.3018518929051675e-16,75.29,75.29,75.29,75.29,75.29,0.0,32.810000000000024,32.809999999999995,32.81000000000001,32.81000000000002,32.81000000000002,1.1234667099445444e-14,-8.94,-10.77,-9.89,-9.925,-10.77,0.6874954545304283
1 -> 2,0.2586890000000001,0.25868899999999984,0.25868900000000006,0.25868900000000006,0.2586890000000001,1.3018518929051675e-16,75.29,75.29,75.29,75.29,75.29,0.0,32.810000000000024,32.809999999999995,32.81000000000001,32.81000000000002,32.81000000000002,1.1234667099445444e-14,-11.13,-11.79,-11.455,-11.45,-11.79,0.2419194080680583
1 -> 2,0.2586890000000001,0.25868899999999984,0.25868900000000006,0.25868900000000006,0.2586890000000001,1.3018518929051675e-16,75.29,75.29,75.29,75.29,75.29,0.0,32.810000000000024,32.809999999999995,32.81000000000001,32.81000000000002,32.81000000000002,1.1234667099445444e-14,-11.13,-11.79,-11.455,-11.45,-11.79,0.2419194080680583
1 -> 2,0.2586890000000001,0.25868899999999984,0.25868900000000006,0.25868900000000006,0.2586890000000001,1.3018518929051675e-16,75.29,75.29,75.29,75.29,75.29,0.0,32.810000000000024,32.809999999999995,32.81000000000001,32.81000000000002,32.81000000000002,1.1234667099445444e-14,-12.18,-13.83,-13.0025,-13.0,-13.83,0.62074048522712
1 -> 2,0.2586890000000001,0.25868899999999984,0.25868900000000006,0.25868900000000006,0.2586890000000001,1.3018518929051675e-16,75.29,75.29,75.29,75.29,75.29,0.0,32.810000000000024,32.809999999999995,32.81000000000001,32.81000000000002,32.81000000000002,1.1234667099445444e-14,-12.18,-13.83,-13.0025,-13.0,-13.83,0.62074048522712
1 -> 2,0.2586890000000001,0.25868899999999984,0.25868900000000006,0.25868900000000006,0.2586890000000001,1.3018518929051675e-16,75.29,75.29,75.29,75.29,75.29,0.0,32.810000000000024,32.809999999999995,32.81000000000001,32.81000000000002,32.81000000000002,1.1234667099445444e-14,-14.19,-14.51,-14.365,-14.379999999999999,-14.51,0.11608186766243914
1 -> 2,0.2586890000000001,0.25868899999999984,0.25868900000000006,0.25868900000000006,0.2586890000000001,1.3018518929051675e-16,75.29,75.29,75.29,75.29,75.29,0.0,32.810000000000024,32.809999999999995,32.81000000000001,32.81000000000002,32.81000000000002,1.1234667099445444e-14,-14.19,-14.51,-14.365,-14.379999999999999,-14.51,0.11608186766243914
1 -> 2,0.2586890000000001,0.25868899999999984,0.25868900000000006,0.25868900000000006,0.2586890000000001,1.3018518929051675e-16,75.29,75.29,75.29,75.29,75.29,0.0,32.810000000000024,32.809999999999995,32.81000000000001,32.81000000000002,32.81000000000002,1.1234667099445444e-14,-14.78,-16.58,-15.625,-15.57,-16.58,0.6753332510694254
1 -> 2,0.2586890000000001,0.25868899999999984,0.25868900000000006,0.25868900000000006,0.2586890000000001,1.3018518929051675e-16,75.29,75.29,75.29,75.29,75.29,0.0,32.810000000000024,32.809999999999995,32.81000000000001,32.81000000000002,32.81000000000002,1.1234667099445444e-14,-14.78,-16.58,-15.625,-15.57,-16.58,0.6753332510694254
1 -> 2,0.2586890000000001,0.25868899999999984,0.25868900000000006,0.25868900000000006,0.2586890000000001,1.3018518929051675e-16,75.29,75.29,75.29,75.29,75.29,0.0,32.810000000000024,32.809999999999995,32.81000000000001,32.81000000000002,32.81000000000002,1.1234667099445444e-14,-17.36,-21.05,-19.07,-18.935000000000002,-21.05,1.3817923143511839
1 -> 2,0.2586890000000001,0.25868899999999984,0.25868900000000006,0.25868900000000006,0.2586890000000001,1.3018518929051675e-16,75.29,75.29,75.29,75.29,75.29,0.0,32.810000000000024,32.809999999999995,32.81000000000001,32.81000000000002,32.81000000000002,1.1234667099445444e-14,-17.36,-21.05,-19.07,-18.935000000000002,-21.05,1.3817923143511839
1 -> 2,0.2586890000000001,0.25868899999999984,0.25868900000000006,0.25868900000000006,0.2586890000000001,1.3018518929051675e-16,75.29,75.29,75.29,75.29,75.29,0.0,32.810000000000024,32.809999999999995,32.81000000000001,32.81000000000002,32.81000000000002,1.1234667099445444e-14,-22.6,-24.09,-23.415000000000003,-23.485,-24.09,0.5683528833392151
1 -> 2,0.2586890000000001,0.25868899999999984,0.25868900000000006,0.25868900000000006,0.2586890000000001,1.3018518929051675e-16,75.29,75.29,75.29,75.29,75.29,0.0,32.810000000000024,32.809999999999995,32.81000000000001,32.81000000000002,32.81000000000002,1.1234667099445444e-14,-22.6,-24.09,-23.415000000000003,-23.485,-24.09,0.5683528833392151
1 -> 2,0.2599690000000001,0.25996899999999984,0.259969,0.259969,0.2599690000000001,1.1775693440128312e-16,75.29,75.29,75.29,75.29,75.29,0.0,32.810000000000024,32.809999999999995,32.81000000000001,32.81000000000002,32.81000000000002,1.1234667099445444e-14,-10.77,-21.06,-16.0325,-16.15,-21.06,3.8560755633156356
1 -> 2,0.2599690000000001,0.25996899999999984,0.259969,0.259969,0.2599690000000001,1.1775693440128312e-16,75.29,75.29,75.29,75.29,75.29,0.0,32.810000000000024,32.809999999999995,32.81000000000001,32.81000000000002,32.81000000000002,1.1234667099445444e-14,-10.77,-21.06,-16.0325,-16.15,-21.06,3.8560755633156356
1 -> 2,0.2599690000000001,0.25996899999999984,0.259969,0.259969,0.2599690000000001,1.1775693440128312e-16,75.29,75.29,75.29,75.29,75.29,0.0,32.810000000000024,32.809999999999995,32.81000000000001,32.81000000000002,32.81000000000002,1.1234667099445444e-14,-1.03,-7.59,-4.1025,-3.895,-7.59,2.4473186858274096
1 -> 2,0.2599690000000001,0.25996899999999984,0.259969,0.259969,0.2599690000000001,1.1775693440128312e-16,75.29,75.29,75.29,75.29,75.29,0.0,32.810000000000024,32.809999999999995,32.81000000000001,32.81000000000002,32.81000000000002,1.1234667099445444e-14,-1.03,-7.59,-4.1025,-3.895,-7.59,2.4473186858274096
1 -> 2,0.2599690000000001,0.25996899999999984,0.259969,0.259969,0.2599690000000001,1.1775693440128312e-16,75.29,75.29,75.29,75.29,75.29,0.0,32.810000000000024,32.809999999999995,32.81000000000001,32.81000000000002,32.81000000000002,1.1234667099445444e-14,6.49,0.67,3.4975,3.415,0.67,2.1716741813633096
1 -> 2,0.2599690000000001,0.25996899999999984,0.259969,0.259969,0.2599690000000001,1.1775693440128312e-16,75.29,75.29,75.29,75.29,75.29,0.0,32.810000000000024,32.809999999999995,32.81000000000001,32.81000000000002,32.81000000000002,1.1234667099445444e-14,6.49,0.67,3.4975,3.415,0.67,2.1716741813633096
1 -> 2,0.2599690000000001,0.25996899999999984,0.259969,0.259969,0.2599690000000001,1.1775693440128312e-16,75.29,75.29,75.29,75.29,75.29,0.0,32.810000000000024,32.809999999999995,32.81000000000001,32.81000000000002,32.81000000000002,1.1234667099445444e-14,14.87,8.72,11.9125,12.030000000000001,8.72,2.302915271997647
1 -> 2,0.2599690000000001,0.25996899999999984,0.259969,0.259969,0.2599690000000001,1.1775693440128312e-16,75.29,75.29,75.29,75.29,75.29,0.0,32.810000000000024,32.809999999999995,32.81000000000001,32.81000000000002,32.81000000000002,1.1234667099445444e-14,14.87,8.72,11.9125,12.030000000000001,8.72,2.302915271997647
1 -> 2,0.2625310000000001,0.262531,0.26253100000000007,0.26253100000000007,0.262531,5.551115123125783e-17,79.5,79.5,79.5,79.5,79.5,0.0,32.79000000000001,32.79,32.790000000000006,32.790000000000006,32.79,7.105427357601002e-15,16.28,14.05,15.477500000000003,15.790000000000001,14.05,0.8622463395109313
1 -> 2,0.2625310000000001,0.262531,0.26253100000000007,0.26253100000000007,0.262531,5.551115123125783e-17,79.5,79.5,79.5,79.5,79.5,0.0,32.79000000000001,32.79,32.790000000000006,32.790000000000006,32.79,7.105427357601002e-15,16.28,14.05,15.477500000000003,15.790000000000001,14.05,0.8622463395109313
1 -> 2,0.2625310000000001,0.262531,0.26253100000000007,0.26253100000000007,0.262531,5.551115123125783e-17,79.5,79.5,79.5,79.5,79.5,0.0,32.79000000000001,32.79,32.790000000000006,32.790000000000006,32.79,7.105427357601002e-15,12.08,7.16,9.432500000000001,9.245000000000001,7.16,1.8465017600858116
1 -> 2,0.2625310000000001,0.262531,0.26253100000000007,0.26253100000000007,0.262531,5.551115123125783e-17,79.5,79.5,79.5,79.5,79.5,0.0,32.79000000000001,32.79,32.790000000000006,32.790000000000006,32.79,7.105427357601002e-15,12.08,7.16,9.432500000000001,9.245000000000001,7.16,1.8465017600858116
1 -> 2,0.2625310000000001,0.262531,0.26253100000000007,0.26253100000000007,0.262531,5.551115123125783e-17,79.5,79.5,79.5,79.5,79.5,0.0,32.79000000000001,32.79,32.790000000000006,32.790000000000006,32.79,7.105427357601002e-15,6.23,3.57,4.9175,4.9350000000000005,3.57,0.9941170705706649
1 -> 2,0.2625310000000001,0.262531,0.26253100000000007,0.26253100000000007,0.262531,5.551115123125783e-17,79.5,79.5,79.5,79.5,79.5,0.0,32.79000000000001,32.79,32.790000000000006,32.790000000000006,32.79,7.105427357601002e-15,6.23,3.57,4.9175,4.9350000000000005,3.57,0.9941170705706649
1 -> 2,0.2625310000000001,0.262531,0.26253100000000007,0.26253100000000007,0.262531,5.551115123125783e-17,79.5,79.5,79.5,79.5,79.5,0.0,32.79000000000001,32.79,32.790000000000006,32.790000000000006,32.79,7.105427357601002e-15,3.32,2.59,2.8975,2.84,2.59,0.2647994524163522
1 -> 2,0.2625310000000001,0.262531,0.26253100000000007,0.26253100000000007,0.262531,5.551115123125783e-17,79.5,79.5,79.5,79.5,79.5,0.0,32.79000000000001,32.79,32.790000000000006,32.790000000000006,32.79,7.105427357601002e-15,3.32,2.59,2.8975,2.84,2.59,0.2647994524163522
1 -> 2,0.26381100000000013,0.2638109999999998,0.263811,0.263811,0.26381100000000013,1.3877787807814457e-16,79.5,79.5,79.5,79.5,79.5,0.0,32.79000000000001,32.79,32.790000000000006,32.790000000000006,32.79,7.105427357601002e-15,3.64,0.04,2.2725,2.705,0.04,1.412858361620159
1 -> 2,0.26381100000000013,0.2638109999999998,0.263811,0.263811,0.26381100000000013,1.3877787807814457e-16,79.5,79.5,79.5,79.5,79.5,0.0,32.79000000000001,32.79,32.790000000000006,32.790000000000006,32.79,7.105427357601002e-15,3.64,0.04,2.2725,2.705,0.04,1.412858361620159
1 -> 2,0.26381100000000013,0.2638109999999998,0.263811,0.263811,0.26381100000000013,1.3877787807814457e-16,79.5,79.5,79.5,79.5,79.5,0.0,32.79000000000001,32.79,32.790000000000006,32.790000000000006,32.79,7.105427357601002e-15,-2.43,-7.42,-5.26,-5.595000000000001,-7.42,1.8947955034778816
1 -> 2,0.26381100000000013,0.2638109999999998,0.263811,0.263811,0.26381100000000013,1.3877787807814457e-16,79.5,79.5,79.5,79.5,79.5,0.0,32.79000000000001,32.79,32.790000000000006,32.790000000000006,32.79,7.105427357601002e-15,-2.43,-7.42,-5.26,-5.595000000000001,-7.42,1.8947955034778816
1 -> 2,0.26381100000000013,0.2638109999999998,0.263811,0.263811,0.26381100000000013,1.3877787807814457e-16,79.5,79.5,79.5,79.5,79.5,0.0,32.79000000000001,32.79,32.790000000000006,32.790000000000006,32.79,7.105427357601002e-15,-7.88,-10.45,-8.925,-8.684999999999999,-10.45,0.9804208280121347
1 -> 2,0.26381100000000013,0.2638109999999998,0.263811,0.263811,0.26381100000000013,1.3877787807814457e-16,79.5,79.5,79.5,79.5,79.5,0.0,32.79000000000001,32.79,32.790000000000006,32.790000000000006,32.79,7.105427357601002e-15,-7.88,-10.45,-8.925,-8.684999999999999,-10.45,0.9804208280121347
1 -> 2,0.26381100000000013,0.2638109999999998,0.263811,0.263811,0.26381100000000013,1.3877787807814457e-16,79.5,79.5,79.5,79.5,79.5,0.0,32.79000000000001,32.79,32.790000000000006,32.790000000000006,32.79,7.105427357601002e-15,-12.26,-16.68,-14.7125,-14.955,-16.68,1.6759978371107762
1 -> 2,0.26381100000000013,0.2638109999999998,0.263811,0.263811,0.26381100000000013,1.3877787807814457e-16,79.5,79.5,79.5,79.5,79.5,0.0,32.79000000000001,32.79,32.790000000000006,32.790000000000006,32.79,7.105427357601002e-15,-12.26,-16.68,-14.7125,-14.955,-16.68,1.6759978371107762
1 -> 2,0.2650920000000001,0.26509199999999983,0.265092,0.265092,0.2650920000000001,1.1775693440128312e-16,79.5,79.5,79.5,79.5,79.5,0.0,32.79000000000001,32.79,32.790000000000006,32.790000000000006,32.79,7.105427357601002e-15,-12.95,-16.81,-15.165,-15.45,-16.81,1.4747457407973752
1 -> 2,0.2650920000000001,0.26509199999999983,0.265092,0.265092,0.2650920000000001,1.1775693440128312e-16,79.5,79.5,79.5,79.5,79.5,0.0,32.79000000000001,32.79,32.790000000000006,32.790000000000006,32.79,7.105427357601002e-15,-12.95,-16.81,-15.165,-15.45,-16.81,1.4747457407973752
1 -> 2,0.2650920000000001,0.26509199999999983,0.265092,0.265092,0.2650920000000001,1.1775693440128312e-16,79.5,79.5,79.5,79.5,79.5,0.0,32.79000000000001,32.79,32.790000000000006,32.790000000000006,32.79,7.105427357601002e-15,-6.28,-10.95,-8.445,-8.275,-10.95,1.7501785623187134
1 -> 2,0.2650920000000001,0.26509199999999983,0.265092,0.265092,0.2650920000000001,1.1775693440128312e-16,79.5,79.5,79.5,79.5,79.5,0.0,32.79000000000001,32.79,32.790000000000006,32.790000000000006,32.79,7.105427357601002e-15,-6.28,-10.95,-8.445,-8.275,-10.95,1.7501785623187134
1 -> 2,0.2650920000000001,0.26509199999999983,0.265092,0.265092,0.2650920000000001,1.1775693440128312e-16,79.5,79.5,79.5,79.5,79.5,0.0,32.79000000000001,32.79,32.790000000000006,32.790000000000006,32.79,7.105427357601002e-15,-1.02,-5.31,-3.3949999999999996,-3.625,-5.31,1.6066191210115732
1 -> 2,0.2650920000000001,0.26509199999999983,0.265092,0.265092,0.2650920000000001,1.1775693440128312e-16,79.5,79.5,79.5,79.5,79.5,0.0,32.79000000000001,32.79,32.790000000000006,32.790000000000006,32.79,7.105427357601002e-15,-1.02,-5.31,-3.3949999999999996,-3.625,-5.31,1.6066191210115732
1 -> 2,0.2650920000000001,0.26509199999999983,0.265092,0.265092,0.2650920000000001,1.1775693440128312e-16,79.5,79.5,79.5,79.5,79.5,0.0,32.79000000000001,32.79,32.790000000000006,32.790000000000006,32.79,7.105427357601002e-15,12.43,1.58,6.8375,6.67,1.58,4.056429310366446
1 -> 2,0.2650920000000001,0.26509199999999983,0.265092,0.265092,0.2650920000000001,1.1775693440128312e-16,79.5,79.5,79.5,79.5,79.5,0.0,32.79000000000001,32.79,32.790000000000006,32.790000000000006,32.79,7.105427357601002e-15,12.43,1.58,6.8375,6.67,1.58,4.056429310366446
1 -> 2,0.2804590000000001,0.28045899999999996,0.280459,0.280459,0.28045899999999996,8.777083671441753e-17,79.5,79.5,79.5,79.5,79.5,0.0,32.79000000000001,32.79,32.790000000000006,32.790000000000006,32.79,7.105427357601002e-15,24.57,16.22,20.689999999999998,20.985,16.22,3.124331928588895
1 -> 2,0.2804590000000001,0.28045899999999996,0.280459,0.280459,0.28045899999999996,8.777083671441753e-17,79.5,79.5,79.5,79.5,79.5,0.0,32.79000000000001,32.79,32.790000000000006,32.790000000000006,32.79,7.105427357601002e-15,24.57,16.22,20.689999999999998,20.985,16.22,3.124331928588895
1 -> 2,0.2804590000000001,0.28045899999999996,0.280459,0.280459,0.28045899999999996,8.777083671441753e-17,79.5,79.5,79.5,79.5,79.5,0.0,32.79000000000001,32.79,32.790000000000006,32.790000000000006,32.79,7.105427357601002e-15,31.37,26.4,28.925,28.965,26.4,1.858689054145422
1 -> 2,0.2804590000000001,0.28045899999999996,0.280459,0.280459,0.28045899999999996,8.777083671441753e-17,79.5,79.5,79.5,79.5,79.5,0.0,32.79000000000001,32.79,32.790000000000006,32.790000000000006,32.79,7.105427357601002e-15,31.37,26.4,28.925,28.965,26.4,1.858689054145422
1 -> 2,0.2804590000000001,0.28045899999999996,0.280459,0.280459,0.28045899999999996,8.777083671441753e-17,79.5,79.5,79.5,79.5,79.5,0.0,32.79000000000001,32.79,32.790000000000006,32.790000000000006,32.79,7.105427357601002e-15,32.34,28.63,31.062499999999996,31.64,28.63,1.5050809778879017
1 -> 2,0.2804590000000001,0.28045899999999996,0.280459,0.280459,0.28045899999999996,8.777083671441753e-17,79.5,79.5,79.5,79.5,79.5,0.0,32.79000000000001,32.79,32.790000000000006,32.790000000000006,32.79,7.105427357601002e-15,32.34,28.63,31.062499999999996,31.64,28.63,1.5050809778879017
1 -> 2,0.2804590000000001,0.28045899999999996,0.280459,0.280459,0.28045899999999996,8.777083671441753e-17,79.5,79.5,79.5,79.5,79.5,0.0,32.79000000000001,32.79,32.790000000000006,32.790000000000006,32.79,7.105427357601002e-15,25.74,19.12,22.142500000000002,21.855,19.12,2.4841937826989255
1 -> 2,0.2804590000000001,0.28045899999999996,0.280459,0.280459,0.28045899999999996,8.777083671441753e-17,79.5,79.5,79.5,79.5,79.5,0.0,32.79000000000001,32.79,32.790000000000006,32.790000000000006,32.79,7.105427357601002e-15,25.74,19.12,22.142500000000002,21.855,19.12,2.4841937826989255
1 -> 2,0.30863400000000013,0.3086339999999998,0.30863399999999996,0.3086340000000001,0.30863400000000013,1.442222014787673e-16,82.78,82.78,82.78,82.78,82.78,0.0,32.810000000000024,32.809999999999995,32.81000000000001,32.81000000000002,32.81000000000002,1.1234667099445444e-14,17.75,10.82,14.625,14.965,10.82,2.602734139323492
1 -> 2,0.30863400000000013,0.3086339999999998,0.30863399999999996,0.3086340000000001,0.30863400000000013,1.442222014787673e-16,82.78,82.78,82.78,82.78,82.78,0.0,32.810000000000024,32.809999999999995,32.81000000000001,32.81000000000002,32.81000000000002,1.1234667099445444e-14,17.75,10.82,14.625,14.965,10.82,2.602734139323492
1 -> 2,0.30863400000000013,0.3086339999999998,0.30863399999999996,0.3086340000000001,0.30863400000000013,1.442222014787673e-16,82.78,82.78,82.78,82.78,82.78,0.0,32.810000000000024,32.809999999999995,32.81000000000001,32.81000000000002,32.81000000000002,1.1234667099445444e-14,7.32,-3.84,1.7400000000000002,1.74,-3.84,4.159086438149609
1 -> 2,0.30863400000000013,0.3086339999999998,0.30863399999999996,0.3086340000000001,0.30863400000000013,1.442222014787673e-16,82.78,82.78,82.78,82.78,82.78,0.0,32.810000000000024,32.809999999999995,32.81000000000001,32.81000000000002,32.81000000000002,1.1234667099445444e-14,7.32,-3.84,1.7400000000000002,1.74,-3.84,4.159086438149609
1 -> 2,0.30863400000000013,0.3086339999999998,0.30863399999999996,0.3086340000000001,0.30863400000000013,1.442222014787673e-16,82.78,82.78,82.78,82.78,82.78,0.0,32.810000000000024,32.809999999999995,32.81000000000001,32.81000000000002,32.81000000000002,1.1234667099445444e-14,-7.68,-19.17,-13.5475,-13.67,-19.17,4.3008799971633715
1 -> 2,0.30863400000000013,0.3086339999999998,0.30863399999999996,0.3086340000000001,0.30863400000000013,1.442222014787673e-16,82.78,82.78,82.78,82.78,82.78,0.0,32.810000000000024,32.809999999999995,32.81000000000001,32.81000000000002,32.81000000000002,1.1234667099445444e-14,-7.68,-19.17,-13.5475,-13.67,-19.17,4.3008799971633715
1 -> 2,0.30863400000000013,0.3086339999999998,0.30863399999999996,0.3086340000000001,0.30863400000000013,1.442222014787673e-16,82.78,82.78,82.78,82.78,82.78,0.0,32.810000000000024,32.809999999999995,32.81000000000001,32.81000000000002,32.81000000000002,1.1234667099445444e-14,-21.33,-22.75,-22.057499999999997,-22.075,-22.75,0.5817806717311947
1 -> 2,0.30863400000000013,0.3086339999999998,0.30863399999999996,0.3086340000000001,0.30863400000000013,1.442222014787673e-16,82.78,82.78,82.78,82.78,82.78,0.0,32.810000000000024,32.809999999999995,32.81000000000001,32.81000000000002,32.81000000000002,1.1234667099445444e-14,-21.33,-22.75,-22.057499999999997,-22.075,-22.75,0.5817806717311947
1 -> 2,0.2753370000000001,0.2753369999999998,0.27533699999999994,0.275337,0.2753370000000001,1.4686870114880517e-16,82.78,82.78,82.78,82.78,82.78,0.0,32.810000000000024,32.809999999999995,32.81000000000001,32.81000000000002,32.81000000000002,1.1234667099445444e-14,-18.77,-19.98,-19.1625,-18.95,-19.98,0.48396151706514884
1 -> 2,0.2753370000000001,0.2753369999999998,0.27533699999999994,0.275337,0.2753370000000001,1.4686870114880517e-16,82.78,82.78,82.78,82.78,82.78,0.0,32.810000000000024,32.809999999999995,32.81000000000001,32.81000000000002,32.81000000000002,1.1234667099445444e-14,-18.77,-19.98,-19.1625,-18.95,-19.98,0.48396151706514884
1 -> 2,0.2753370000000001,0.2753369999999998,0.27533699999999994,0.275337,0.2753370000000001,1.4686870114880517e-16,82.78,82.78,82.78,82.78,82.78,0.0,32.810000000000024,32.809999999999995,32.81000000000001,32.81000000000002,32.81000000000002,1.1234667099445444e-14,-13.81,-18.74,-16.6725,-17.07,-18.74,1.888364040644705
1 -> 2,0.2753370000000001,0.2753369999999998,0.27533699999999994,0.275337,0.2753370000000001,1.4686870114880517e-16,82.78,82.78,82.78,82.78,82.78,0.0,32.810000000000024,32.809999999999995,32.81000000000001,32.81000000000002,32.81000000000002,1.1234667099445444e-14,-13.81,-18.74,-16.6725,-17.07,-18.74,1.888364040644705
1 -> 2,0.2753370000000001,0.2753369999999998,0.27533699999999994,0.275337,0.2753370000000001,1.4686870114880517e-16,82.78,82.78,82.78,82.78,82.78,0.0,32.810000000000024,32.809999999999995,32.81000000000001,32.81000000000002,32.81000000000002,1.1234667099445444e-14,-4.98,-11.2,-7.95,-7.8100000000000005,-11.2,2.31639806596362
1 -> 2,0.2753370000000001,0.2753369999999998,0.27533699999999994,0.275337,0.2753370000000001,1.4686870114880517e-16,82.78,82.78,82.78,82.78,82.78,0.0,32.810000000000024,32.809999999999995,32.81000000000001,32.81000000000002,32.81000000000002,1.1234667099445444e-14,-4.98,-11.2,-7.95,-7.8100000000000005,-11.2,2.31639806596362
1 -> 2,0.2753370000000001,0.2753369999999998,0.27533699999999994,0.275337,0.2753370000000001,1.4686870114880517e-16,82.78,82.78,82.78,82.78,82.78,0.0,32.810000000000024,32.809999999999995,32.81000000000001,32.81000000000002,32.81000000000002,1.1234667099445444e-14,3.22,-3.05,0.17500000000000016,0.26499999999999996,-3.05,2.356910053438612
1 -> 2,0.2753370000000001,0.2753369999999998,0.27533699999999994,0.275337,0.2753370000000001,1.4686870114880517e-16,82.78,82.78,82.78,82.78,82.78,0.0,32.810000000000024,32.809999999999995,32.81000000000001,32.81000000000002,32.81000000000002,1.1234667099445444e-14,3.22,-3.05,0.17500000000000016,0.26499999999999996,-3.05,2.356910053438612
1 -> 2,0.2689340000000001,0.26893399999999995,0.268934,0.26893400000000006,0.2689340000000001,8.326672684688674e-17,82.78,82.78,82.78,82.78,82.78,0.0,32.810000000000024,32.809999999999995,32.81000000000001,32.81000000000002,32.81000000000002,1.1234667099445444e-14,4.12,0.67,2.78,3.165,0.67,1.3627729084480658
1 -> 2,0.2689340000000001,0.26893399999999995,0.268934,0.26893400000000006,0.2689340000000001,8.326672684688674e-17,82.78,82.78,82.78,82.78,82.78,0.0,32.810000000000024,32.809999999999995,32.81000000000001,32.81000000000002,32.81000000000002,1.1234667099445444e-14,4.12,0.67,2.78,3.165,0.67,1.3627729084480658
1 -> 2,0.2689340000000001,0.26893399999999995,0.268934,0.26893400000000006,0.2689340000000001,8.326672684688674e-17,82.78,82.78,82.78,82.78,82.78,0.0,32.810000000000024,32.809999999999995,32.81000000000001,32.81000000000002,32.81000000000002,1.1234667099445444e-14,0.21,-1.86,-1.0375,-1.25,-1.86,0.7823162723604822
1 -> 2,0.2689340000000001,0.26893399999999995,0.268934,0.26893400000000006,0.2689340000000001,8.326672684688674e-17,82.78,82.78,82.78,82.78,82.78,0.0,32.810000000000024,32.809999999999995,32.81000000000001,32.81000000000002,32.81000000000002,1.1234667099445444e-14,0.21,-1.86,-1.0375,-1.25,-1.86,0.7823162723604822
1 -> 2,0.2689340000000001,0.26893399999999995,0.268934,0.26893400000000006,0.2689340000000001,8.326672684688674e-17,82.78,82.78,82.78,82.78,82.78,0.0,32.810000000000024,32.809999999999995,32.81000000000001,32.81000000000002,32.81000000000002,1.1234667099445444e-14,14.63,3.11,8.852500000000001,8.835,3.11,4.312669561883915
1 -> 2,0.2689340000000001,0.26893399999999995,0.268934,0.26893400000000006,0.2689340000000001,8.326672684688674e-17,82.78,82.78,82.78,82.78,82.78,0.0,32.810000000000024,32.809999999999995,32.81000000000001,32.81000000000002,32.81000000000002,1.1234667099445444e-14,14.63,3.11,8.852500000000001,8.835,3.11,4.312669561883915
1 -> 2,0.2689340000000001,0.26893399999999995,0.268934,0.26893400000000006,0.2689340000000001,8.326672684688674e-17,82.78,82.78,82.78,82.78,82.78,0.0,32.810000000000024,32.809999999999995,32.81000000000001,32.81000000000002,32.81000000000002,1.1234667099445444e-14,23.71,17.82,21.025,21.284999999999997,17.82,2.204569118898294
1 -> 2,0.2689340000000001,0.26893399999999995,0.268934,0.26893400000000006,0.2689340000000001,8.326672684688674e-17,82.78,82.78,82.78,82.78,82.78,0.0,32.810000000000024,32.809999999999995,32.81000000000001,32.81000000000002,32.81000000000002,1.1234667099445444e-14,23.71,17.82,21.025,21.284999999999997,17.82,2.204569118898294
1 -> 2,0.2676530000000001,0.2676529999999999,0.26765300000000003,0.26765300000000003,0.2676530000000001,7.343435057440258e-17,82.78,82.78,82.78,82.78,82.78,0.0,32.810000000000024,32.809999999999995,32.81000000000001,32.81000000000002,32.81000000000002,1.1234667099445444e-14,28.33,24.88,26.4925,26.380000000000003,24.88,1.2769176754983067
1 -> 2,0.2676530000000001,0.2676529999999999,0.26765300000000003,0.26765300000000003,0.2676530000000001,7.343435057440258e-17,82.78,82.78,82.78,82.78,82.78,0.0,32.810000000000024,32.809999999999995,32.81000000000001,32.81000000000002,32.81000000000002,1.1234667099445444e-14,28.33,24.88,26.4925,26.380000000000003,24.88,1.2769176754983067
1 -> 2,0.2676530000000001,0.2676529999999999,0.26765300000000003,0.26765300000000003,0.2676530000000001,7.343435057440258e-17,82.78,82.78,82.78,82.78,82.78,0.0,32.810000000000024,32.809999999999995,32.81000000000001,32.81000000000002,32.81000000000002,1.1234667099445444e-14,45.0,30.7,37.3725,36.894999999999996,30.7,5.373720196474693
1 -> 2,0.2676530000000001,0.2676529999999999,0.26765300000000003,0.26765300000000003,0.2676530000000001,7.343435057440258e-17,82.78,82.78,82.78,82.78,82.78,0.0,32.810000000000024,32.809999999999995,32.81000000000001,32.81000000000002,32.81000000000002,1.1234667099445444e-14,45.0,30.7,37.3725,36.894999999999996,30.7,5.373720196474693
1 -> 2,0.2676530000000001,0.2676529999999999,0.26765300000000003,0.26765300000000003,0.2676530000000001,7.343435057440258e-17,82.78,82.78,82.78,82.78,82.78,0.0,32.810000000000024,32.809999999999995,32.81000000000001,32.81000000000002,32.81000000000002,1.1234667099445444e-14,58.89,50.28,55.207499999999996,55.83,50.28,3.2588446955938233
1 -> 2,0.2676530000000001,0.2676529999999999,0.26765300000000003,0.26765300000000003,0.2676530000000001,7.343435057440258e-17,82.78,82.78,82.78,82.78,82.78,0.0,32.810000000000024,32.809999999999995,32.81000000000001,32.81000000000002,32.81000000000002,1.1234667099445444e-14,58.89,50.28,55.207499999999996,55.83,50.28,3.2588446955938233
1 -> 2,0.2676530000000001,0.2676529999999999,0.26765300000000003,0.26765300000000003,0.2676530000000001,7.343435057440258e-17,82.78,82.78,82.78,82.78,82.78,0.0,32.810000000000024,32.809999999999995,32.81000000000001,32.81000000000002,32.81000000000002,1.1234667099445444e-14,60.04,56.55,58.885000000000005,59.475,56.55,1.3892893867009866
1 -> 2,0.2676530000000001,0.2676529999999999,0.26765300000000003,0.26765300000000003,0.2676530000000001,7.343435057440258e-17,82.78,82.78,82.78,82.78,82.78,0.0,32.810000000000024,32.809999999999995,32.81000000000001,32.81000000000002,32.81000000000002,1.1234667099445444e-14,60.04,56.55,58.885000000000005,59.475,56.55,1.3892893867009866
1 -> 2,0.2676530000000001,0.2676529999999999,0.26765300000000003,0.26765300000000003,0.2676530000000001,7.343435057440258e-17,85.0,85.0,85.0,85.0,85.0,0.0,32.750000000000014,32.74999999999998,32.75,32.75000000000001,32.750000000000014,1.464821375527116e-14,52.28,35.53,44.035000000000004,44.165000000000006,35.53,6.242221159170828
1 -> 2,0.2676530000000001,0.2676529999999999,0.26765300000000003,0.26765300000000003,0.2676530000000001,7.343435057440258e-17,85.0,85.0,85.0,85.0,85.0,0.0,32.750000000000014,32.74999999999998,32.75,32.75000000000001,32.750000000000014,1.464821375527116e-14,52.28,35.53,44.035000000000004,44.165000000000006,35.53,6.242221159170828
1 -> 2,0.2676530000000001,0.2676529999999999,0.26765300000000003,0.26765300000000003,0.2676530000000001,7.343435057440258e-17,85.0,85.0,85.0,85.0,85.0,0.0,32.750000000000014,32.74999999999998,32.75,32.75000000000001,32.750000000000014,1.464821375527116e-14,27.55,-49.99,-4.945,1.33,-49.99,29.437681209633347
1 -> 2,0.2676530000000001,0.2676529999999999,0.26765300000000003,0.26765300000000003,0.2676530000000001,7.343435057440258e-17,85.0,85.0,85.0,85.0,85.0,0.0,32.750000000000014,32.74999999999998,32.75,32.75000000000001,32.750000000000014,1.464821375527116e-14,27.55,-49.99,-4.945,1.33,-49.99,29.437681209633347
1 -> 2,0.2676530000000001,0.2676529999999999,0.26765300000000003,0.26765300000000003,0.2676530000000001,7.343435057440258e-17,85.0,85.0,85.0,85.0,85.0,0.0,32.750000000000014,32.74999999999998,32.75,32.75000000000001,32.750000000000014,1.464821375527116e-14,-104.1,-302.87,-203.95,-204.41500000000002,-302.87,74.44572150231335
1 -> 2,0.2676530000000001,0.2676529999999999,0.26765300000000003,0.26765300000000003,0.2676530000000001,7.343435057440258e-17,85.0,85.0,85.0,85.0,85.0,0.0,32.750000000000014,32.74999999999998,32.75,32.75000000000001,32.750000000000014,1.464821375527116e-14,-104.1,-302.87,-203.95,-204.41500000000002,-302.87,74.44572150231335
1 -> 2,0.2676530000000001,0.2676529999999999,0.26765300000000003,0.26765300000000003,0.2676530000000001,7.343435057440258e-17,85.0,85.0,85.0,85.0,85.0,0.0,32.750000000000014,32.74999999999998,32.75,32.75000000000001,32.750000000000014,1.464821375527116e-14,-352.03,-389.49,-375.7875,-380.81500000000005,-389.49,14.168335073324618
1 -> 2,0.2676530000000001,0.2676529999999999,0.26765300000000003,0.26765300000000003,0.2676530000000001,7.343435057440258e-17,85.0,85.0,85.0,85.0,85.0,0.0,32.750000000000014,32.74999999999998,32.75,32.75000000000001,32.750000000000014,1.464821375527116e-14,-352.03,-389.49,-375.7875,-380.81500000000005,-389.49,14.168335073324618
1 -> 2,0.26637300000000014,0.26637299999999997,0.2663730000000001,0.2663730000000001,0.26637300000000014,7.343435057440258e-17,85.0,85.0,85.0,85.0,85.0,0.0,32.750000000000014,32.74999999999998,32.75,32.75000000000001,32.750000000000014,1.464821375527116e-14,-279.9,-359.96,-320.0675,-320.205,-359.96,29.916481556994633
1 -> 2,0.26637300000000014,0.26637299999999997,0.2663730000000001,0.2663730000000001,0.26637300000000014,7.343435057440258e-17,85.0,85.0,85.0,85.0,85.0,0.0,32.750000000000014,32.74999999999998,32.75,32.75000000000001,32.750000000000014,1.464821375527116e-14,-279.9,-359.96,-320.0675,-320.205,-359.96,29.916481556994633
1 -> 2,0.26637300000000014,0.26637299999999997,0.2663730000000001,0.2663730000000001,0.26637300000000014,7.343435057440258e-17,85.0,85.0,85.0,85.0,85.0,0.0,32.750000000000014,32.74999999999998,32.75,32.75000000000001,32.750000000000014,1.464821375527116e-14,-182.96,-254.44,-218.35000000000002,-218.0,-254.44,26.638342666164498
1 -> 2,0.26637300000000014,0.26637299999999997,0.2663730000000001,0.2663730000000001,0.26637300000000014,7.343435057440258e-17,85.0,85.0,85.0,85.0,85.0,0.0,32.750000000000014,32.74999999999998,32.75,32.75000000000001,32.750000000000014,1.464821375527116e-14,-182.96,-254.44,-218.35000000000002,-218.0,-254.44,26.638342666164498
1 -> 2,0.26637300000000014,0.26637299999999997,0.2663730000000001,0.2663730000000001,0.26637300000000014,7.343435057440258e-17,85.0,85.0,85.0,85.0,85.0,0.0,32.750000000000014,32.74999999999998,32.75,32.75000000000001,32.750000000000014,1.464821375527116e-14,-76.52,-159.94,-120.13499999999999,-122.03999999999999,-159.94,31.09322876447539
1 -> 2,0.26637300000000014,0.26637299999999997,0.2663730000000001,0.2663730000000001,0.26637300000000014,7.343435057440258e-17,85.0,85.0,85.0,85.0,85.0,0.0,32.750000000000014,32.74999999999998,32.75,32.75000000000001,32.750000000000014,1.464821375527116e-14,-76.52,-159.94,-120.13499999999999,-122.03999999999999,-159.94,31.09322876447539
1 -> 2,0.26637300000000014,0.26637299999999997,0.2663730000000001,0.2663730000000001,0.26637300000000014,7.343435057440258e-17,85.0,85.0,85.0,85.0,85.0,0.0,32.750000000000014,32.74999999999998,32.75,32.75000000000001,32.750000000000014,1.464821375527116e-14,64.01,-40.3,13.960000000000003,16.065,-40.3,39.09705423686035
1 -> 2,0.26637300000000014,0.26637299999999997,0.2663730000000001,0.2663730000000001,0.26637300000000014,7.343435057440258e-17,85.0,85.0,85.0,85.0,85.0,0.0,32.750000000000014,32.74999999999998,32.75,32.75000000000001,32.750000000000014,1.464821375527116e-14,64.01,-40.3,13.960000000000003,16.065,-40.3,39.09705423686035
1 -> 2,0.26381100000000013,0.2638109999999998,0.263811,0.263811,0.26381100000000013,1.3877787807814457e-16,85.0,85.0,85.0,85.0,85.0,0.0,32.750000000000014,32.74999999999998,32.75,32.75000000000001,32.750000000000014,1.464821375527116e-14,96.8,84.35,92.6075,94.64,84.35,4.848383106768691
1 -> 2,0.26381100000000013,0.2638109999999998,0.263811,0.263811,0.26381100000000013,1.3877787807814457e-16,85.0,85.0,85.0,85.0,85.0,0.0,32.750000000000014,32.74999999999998,32.75,32.75000000000001,32.750000000000014,1.464821375527116e-14,96.8,84.35,92.6075,94.64,84.35,4.848383106768691
1 -> 2,0.26381100000000013,0.2638109999999998,0.263811,0.263811,0.26381100000000013,1.3877787807814457e-16,85.0,85.0,85.0,85.0,85.0,0.0,32.750000000000014,32.74999999999998,32.75,32.75000000000001,32.750000000000014,1.464821375527116e-14,100.67,92.1,95.05,93.715,92.1,3.4821904026058106
1 -> 2,0.26381100000000013,0.2638109999999998,0.263811,0.263811,0.26381100000000013,1.3877787807814457e-16,85.0,85.0,85.0,85.0,85.0,0.0,32.750000000000014,32.74999999999998,32.75,32.75000000000001,32.750000000000014,1.464821375527116e-14,100.67,92.1,95.05,93.715,92.1,3.4821904026058106
1 -> 2,0.26381100000000013,0.2638109999999998,0.263811,0.263811,0.26381100000000013,1.3877787807814457e-16,85.0,85.0,85.0,85.0,85.0,0.0,32.750000000000014,32.74999999999998,32.75,32.75000000000001,32.750000000000014,1.464821375527116e-14,112.88,106.5,110.66749999999999,111.645,106.5,2.512701484458508
1 -> 2,0.26381100000000013,0.2638109999999998,0.263811,0.263811,0.26381100000000013,1.3877787807814457e-16,85.0,85.0,85.0,85.0,85.0,0.0,32.750000000000014,32.74999999999998,32.75,32.75000000000001,32.750000000000014,1.464821375527116e-14,112.88,106.5,110.66749999999999,111.645,106.5,2.512701484458508
1 -> 2,0.26381100000000013,0.2638109999999998,0.263811,0.263811,0.26381100000000013,1.3877787807814457e-16,85.0,85.0,85.0,85.0,85.0,0.0,32.750000000000014,32.74999999999998,32.75,32.75000000000001,32.750000000000014,1.464821375527116e-14,110.11,99.79,105.08,105.21000000000001,99.79,3.8527263074347737
1 -> 2,0.26381100000000013,0.2638109999999998,0.263811,0.263811,0.26381100000000013,1.3877787807814457e-16,85.0,85.0,85.0,85.0,85.0,0.0,32.750000000000014,32.74999999999998,32.75,32.75000000000001,32.750000000000014,1.464821375527116e-14,110.11,99.79,105.08,105.21000000000001,99.79,3.8527263074347737
1 -> 2,0.26381100000000013,0.2638109999999998,0.263811,0.263811,0.26381100000000013,1.3877787807814457e-16,85.0,85.0,85.0,85.0,85.0,0.0,32.750000000000014,32.74999999999998,32.75,32.75000000000001,32.750000000000014,1.464821375527116e-14,95.61,78.26,87.3,87.66499999999999,78.26,6.488262479277482
1 -> 2,0.26381100000000013,0.2638109999999998,0.263811,0.263811,0.26381100000000013,1.3877787807814457e-16,85.0,85.0,85.0,85.0,85.0,0.0,32.750000000000014,32.74999999999998,32.75,32.75000000000001,32.750000000000014,1.464821375527116e-14,95.61,78.26,87.3,87.66499999999999,78.26,6.488262479277482
1 -> 2,0.26381100000000013,0.2638109999999998,0.263811,0.263811,0.26381100000000013,1.3877787807814457e-16,85.0,85.0,85.0,85.0,85.0,0.0,32.750000000000014,32.74999999999998,32.75,32.75000000000001,32.750000000000014,1.464821375527116e-14,71.8,55.93,63.552499999999995,63.239999999999995,55.93,5.914881127292414
1 -> 2,0.26381100000000013,0.2638109999999998,0.263811,0.263811,0.26381100000000013,1.3877787807814457e-16,85.0,85.0,85.0,85.0,85.0,0.0,32.750000000000014,32.74999999999998,32.75,32.75000000000001,32.750000000000014,1.464821375527116e-14,71.8,55.93,63.552499999999995,63.239999999999995,55.93,5.914881127292414
1 -> 2,0.26381100000000013,0.2638109999999998,0.263811,0.263811,0.26381100000000013,1.3877787807814457e-16,85.0,85.0,85.0,85.0,85.0,0.0,32.750000000000014,32.74999999999998,32.75,32.75000000000001,32.750000000000014,1.464821375527116e-14,51.31,33.43,42.80500000000001,43.24,33.43,6.675438187864524
1 -> 2,0.26381100000000013,0.2638109999999998,0.263811,0.263811,0.26381100000000013,1.3877787807814457e-16,85.0,85.0,85.0,85.0,85.0,0.0,32.750000000000014,32.74999999999998,32.75,32.75000000000001,32.750000000000014,1.464821375527116e-14,51.31,33.43,42.80500000000001,43.24,33.43,6.675438187864524
1 -> 2,0.26381100000000013,0.2638109999999998,0.263811,0.263811,0.26381100000000013,1.3877787807814457e-16,85.0,85.0,85.0,85.0,85.0,0.0,32.750000000000014,32.74999999999998,32.75,32.75000000000001,32.750000000000014,1.464821375527116e-14,25.98,5.52,15.342500000000001,14.935,5.52,7.657350635174023
1 -> 2,0.26381100000000013,0.2638109999999998,0.263811,0.263811,0.26381100000000013,1.3877787807814457e-16,85.0,85.0,85.0,85.0,85.0,0.0,32.750000000000014,32.74999999999998,32.75,32.75000000000001,32.750000000000014,1.464821375527116e-14,25.98,5.52,15.342500000000001,14.935,5.52,7.657350635174023
1 -> 2,0.26381100000000013,0.2638109999999998,0.263811,0.263811,0.26381100000000013,1.3877787807814457e-16,86.73,86.73,86.73,86.73,86.73,0.0,32.79000000000001,32.79,32.790000000000006,32.790000000000006,32.79,7.105427357601002e-15,1.12,-2.78,-1.48,-2.13,-2.78,1.5664609794054878
1 -> 2,0.26381100000000013,0.2638109999999998,0.263811,0.263811,0.26381100000000013,1.3877787807814457e-16,86.73,86.73,86.73,86.73,86.73,0.0,32.79000000000001,32.79,32.790000000000006,32.790000000000006,32.79,7.105427357601002e-15,1.12,-2.78,-1.48,-2.13,-2.78,1.5664609794054878
1 -> 2,0.26381100000000013,0.2638109999999998,0.263811,0.263811,0.26381100000000013,1.3877787807814457e-16,86.73,86.73,86.73,86.73,86.73,0.0,32.79000000000001,32.79,32.790000000000006,32.790000000000006,32.79,7.105427357601002e-15,6.25,-1.52,2.0175,1.67,-1.52,2.915376262165829
1 -> 2,0.26381100000000013,0.2638109999999998,0.263811,0.263811,0.26381100000000013,1.3877787807814457e-16,86.73,86.73,86.73,86.73,86.73,0.0,32.79000000000001,32.79,32.790000000000006,32.790000000000006,32.79,7.105427357601002e-15,6.25,-1.52,2.0175,1.67,-1.52,2.915376262165829
1 -> 2,0.26381100000000013,0.2638109999999998,0.263811,0.263811,0.26381100000000013,1.3877787807814457e-16,86.73,86.73,86.73,86.73,86.73,0.0,32.79000000000001,32.79,32.790000000000006,32.790000000000006,32.79,7.105427357601002e-15,22.79,10.19,16.6175,16.745,10.19,4.716817650704763
1 -> 2,0.26381100000000013,0.2638109999999998,0.263811,0.263811,0.26381100000000013,1.3877787807814457e-16,86.73,86.73,86.73,86.73,86.73,0.0,32.79000000000001,32.79,32.790000000000006,32.790000000000006,32.79,7.105427357601002e-15,22.79,10.19,16.6175,16.745,10.19,4.716817650704763
1 -> 2,0.26381100000000013,0.2638109999999998,0.263811,0.263811,0.26381100000000013,1.3877787807814457e-16,86.73,86.73,86.73,86.73,86.73,0.0,32.79000000000001,32.79,32.790000000000006,32.790000000000006,32.79,7.105427357601002e-15,29.6,25.77,28.0225,28.36,25.77,1.4565605891963442
1 -> 2,0.26381100000000013,0.2638109999999998,0.263811,0.263811,0.26381100000000013,1.3877787807814457e-16,86.73,86.73,86.73,86.73,86.73,0.0,32.79000000000001,32.79,32.790000000000006,32.790000000000006,32.79,7.105427357601002e-15,29.6,25.77,28.0225,28.36,25.77,1.4565605891963442
1 -> 2,0.2650920000000001,0.26509199999999983,0.265092,0.265092,0.2650920000000001,1.1775693440128312e-16,86.73,86.73,86.73,86.73,86.73,0.0,32.79000000000001,32.79,32.790000000000006,32.790000000000006,32.79,7.105427357601002e-15,31.44,29.98,30.59,30.47,29.98,0.5484979489478521
1 -> 2,0.2650920000000001,0.26509199999999983,0.265092,0.265092,0.2650920000000001,1.1775693440128312e-16,86.73,86.73,86.73,86.73,86.73,0.0,32.79000000000001,32.79,32.790000000000006,32.790000000000006,32.79,7.105427357601002e-15,31.44,29.98,30.59,30.47,29.98,0.5484979489478521
1 -> 2,0.2650920000000001,0.26509199999999983,0.265092,0.265092,0.2650920000000001,1.1775693440128312e-16,86.73,86.73,86.73,86.73,86.73,0.0,32.79000000000001,32.79,32.790000000000006,32.790000000000006,32.79,7.105427357601002e-15,42.03,32.91,37.18,36.89,32.91,3.4294168600507016
1 -> 2,0.2650920000000001,0.26509199999999983,0.265092,0.265092,0.2650920000000001,1.1775693440128312e-16,86.73,86.73,86.73,86.73,86.73,0.0,32.79000000000001,32.79,32.790000000000006,32.790000000000006,32.79,7.105427357601002e-15,42.03,32.91,37.18,36.89,32.91,3.4294168600507016
1 -> 2,0.2650920000000001,0.26509199999999983,0.265092,0.265092,0.2650920000000001,1.1775693440128312e-16,86.73,86.73,86.73,86.73,86.73,0.0,32.79000000000001,32.79,32.790000000000006,32.790000000000006,32.79,7.105427357601002e-15,47.68,45.15,46.6925,46.97,45.15,0.9461335793639291
1 -> 2,0.2650920000000001,0.26509199999999983,0.265092,0.265092,0.2650920000000001,1.1775693440128312e-16,86.73,86.73,86.73,86.73,86.73,0.0,32.79000000000001,32.79,32.790000000000006,32.790000000000006,32.79,7.105427357601002e-15,47.68,45.15,46.6925,46.97,45.15,0.9461335793639291
1 -> 2,0.2650920000000001,0.26509199999999983,0.265092,0.265092,0.2650920000000001,1.1775693440128312e-16,86.73,86.73,86.73,86.73,86.73,0.0,32.79000000000001,32.79,32.790000000000006,32.790000000000006,32.79,7.105427357601002e-15,44.84,36.54,40.8,40.91,36.54,3.098927233737509
1 -> 2,0.2650920000000001,0.26509199999999983,0.265092,0.265092,0.2650920000000001,1.1775693440128312e-16,86.73,86.73,86.73,86.73,86.73,0.0,32.79000000000001,32.79,32.790000000000006,32.790000000000006,32.79,7.105427357601002e-15,44.84,36.54,40.8,40.91,36.54,3.098927233737509
1 -> 2,0.2689340000000001,0.26893399999999995,0.268934,0.26893400000000006,0.2689340000000001,8.326672684688674e-17,86.73,86.73,86.73,86.73,86.73,0.0,32.79000000000001,32.79,32.790000000000006,32.790000000000006,32.79,7.105427357601002e-15,33.4,23.39,28.395,28.395,23.39,3.7365124113269044
1 -> 2,0.2689340000000001,0.26893399999999995,0.268934,0.26893400000000006,0.2689340000000001,8.326672684688674e-17,86.73,86.73,86.73,86.73,86.73,0.0,32.79000000000001,32.79,32.790000000000006,32.790000000000006,32.79,7.105427357601002e-15,33.4,23.39,28.395,28.395,23.39,3.7365124113269044
1 -> 2,0.2689340000000001,0.26893399999999995,0.268934,0.26893400000000006,0.2689340000000001,8.326672684688674e-17,86.73,86.73,86.73,86.73,86.73,0.0,32.79000000000001,32.79,32.790000000000006,32.790000000000006,32.79,7.105427357601002e-15,20.25,11.58,15.9025,15.89,11.58,3.2255958751833744
1 -> 2,0.2689340000000001,0.26893399999999995,0.268934,0.26893400000000006,0.2689340000000001,8.326672684688674e-17,86.73,86.73,86.73,86.73,86.73,0.0,32.79000000000001,32.79,32.790000000000006,32.790000000000006,32.79,7.105427357601002e-15,20.25,11.58,15.9025,15.89,11.58,3.2255958751833744
1 -> 2,0.2689340000000001,0.26893399999999995,0.268934,0.26893400000000006,0.2689340000000001,8.326672684688674e-17,86.73,86.73,86.73,86.73,86.73,0.0,32.79000000000001,32.79,32.790000000000006,32.790000000000006,32.79,7.105427357601002e-15,8.47,-3.38,2.7925000000000004,3.04,-3.38,4.4220491573477565
1 -> 2,0.2689340000000001,0.26893399999999995,0.268934,0.26893400000000006,0.2689340000000001,8.326672684688674e-17,86.73,86.73,86.73,86.73,86.73,0.0,32.79000000000001,32.79,32.790000000000006,32.790000000000006,32.79,7.105427357601002e-15,8.47,-3.38,2.7925000000000004,3.04,-3.38,4.4220491573477565
1 -> 2,0.2689340000000001,0.26893399999999995,0.268934,0.26893400000000006,0.2689340000000001,8.326672684688674e-17,86.73,86.73,86.73,86.73,86.73,0.0,32.79000000000001,32.79,32.790000000000006,32.790000000000006,32.79,7.105427357601002e-15,-8.26,-21.94,-15.392499999999998,-15.684999999999999,-21.94,5.128222767197229
1 -> 2,0.2689340000000001,0.26893399999999995,0.268934,0.26893400000000006,0.2689340000000001,8.326672684688674e-17,86.73,86.73,86.73,86.73,86.73,0.0,32.79000000000001,32.79,32.790000000000006,32.790000000000006,32.79,7.105427357601002e-15,-8.26,-21.94,-15.392499999999998,-15.684999999999999,-21.94,5.128222767197229
1 -> 2,0.2625310000000001,0.262531,0.26253100000000007,0.26253100000000007,0.262531,5.551115123125783e-17,86.73,86.73,86.73,86.73,86.73,0.0,32.79000000000001,32.79,32.790000000000006,32.790000000000006,32.79,7.105427357601002e-15,-22.39,-25.3,-24.1625,-24.48,-25.3,1.0769256009585806
1 -> 2,0.2625310000000001,0.262531,0.26253100000000007,0.26253100000000007,0.262531,5.551115123125783e-17,86.73,86.73,86.73,86.73,86.73,0.0,32.79000000000001,32.79,32.790000000000006,32.790000000000006,32.79,7.105427357601002e-15,-22.39,-25.3,-24.1625,-24.48,-25.3,1.0769256009585806
1 -> 2,0.2625310000000001,0.262531,0.26253100000000007,0.26253100000000007,0.262531,5.551115123125783e-17,86.73,86.73,86.73,86.73,86.73,0.0,32.79000000000001,32.79,32.790000000000006,32.790000000000006,32.79,7.105427357601002e-15,-7.59,-19.37,-13.68,-13.879999999999999,-19.37,4.391730866070916
1 -> 2,0.2625310000000001,0.262531,0.26253100000000007,0.26253100000000007,0.262531,5.551115123125783e-17,86.73,86.73,86.73,86.73,86.73,0.0,32.79000000000001,32.79,32.790000000000006,32.790000000000006,32.79,7.105427357601002e-15,-7.59,-19.37,-13.68,-13.879999999999999,-19.37,4.391730866070916
1 -> 2,0.2625310000000001,0.262531,0.26253100000000007,0.26253100000000007,0.262531,5.551115123125783e-17,86.73,86.73,86.73,86.73,86.73,0.0,32.79000000000001,32.79,32.790000000000006,32.790000000000006,32.79,7.105427357601002e-15,15.82,-2.67,6.3375,6.1000000000000005,-2.67,6.905785165352308
1 -> 2,0.2625310000000001,0.262531,0.26253100000000007,0.26253100000000007,0.262531,5.551115123125783e-17,86.73,86.73,86.73,86.73,86.73,0.0,32.79000000000001,32.79,32.790000000000006,32.790000000000006,32.79,7.105427357601002e-15,15.82,-2.67,6.3375,6.1000000000000005,-2.67,6.905785165352308
1 -> 2,0.2625310000000001,0.262531,0.26253100000000007,0.26253100000000007,0.262531,5.551115123125783e-17,86.73,86.73,86.73,86.73,86.73,0.0,32.79000000000001,32.79,32.790000000000006,32.790000000000006,32.79,7.105427357601002e-15,37.7,22.31,30.435000000000002,30.865000000000002,22.31,5.756085909713303
1 -> 2,0.2625310000000001,0.262531,0.26253100000000007,0.26253100000000007,0.262531,5.551115123125783e-17,86.73,86.73,86.73,86.73,86.73,0.0,32.79000000000001,32.79,32.790000000000006,32.790000000000006,32.79,7.105427357601002e-15,37.7,22.31,30.435000000000002,30.865000000000002,22.31,5.756085909713303
1 -> 2,0.26381100000000013,0.2638109999999998,0.263811,0.263811,0.26381100000000013,1.3877787807814457e-16,88.08,88.08,88.08,88.08,88.08,0.0,32.79000000000001,32.79,32.790000000000006,32.790000000000006,32.79,7.105427357601002e-15,46.52,41.07,44.160000000000004,44.525,41.07,2.0628984463613333
1 -> 2,0.26381100000000013,0.2638109999999998,0.263811,0.263811,0.26381100000000013,1.3877787807814457e-16,88.08,88.08,88.08,88.08,88.08,0.0,32.79000000000001,32.79,32.790000000000006,32.790000000000006,32.79,7.105427357601002e-15,46.52,41.07,44.160000000000004,44.525,41.07,2.0628984463613333
1 -> 2,0.26381100000000013,0.2638109999999998,0.263811,0.263811,0.26381100000000013,1.3877787807814457e-16,88.08,88.08,88.08,88.08,88.08,0.0,32.79000000000001,32.79,32.790000000000006,32.790000000000006,32.79,7.105427357601002e-15,46.91,45.07,46.165,46.34,45.07,0.7152796655854258
1 -> 2,0.26381100000000013,0.2638109999999998,0.263811,0.263811,0.26381100000000013,1.3877787807814457e-16,88.08,88.08,88.08,88.08,88.08,0.0,32.79000000000001,32.79,32.790000000000006,32.790000000000006,32.79,7.105427357601002e-15,46.91,45.07,46.165,46.34,45.07,0.7152796655854258
1 -> 2,0.26381100000000013,0.2638109999999998,0.263811,0.263811,0.26381100000000013,1.3877787807814457e-16,88.08,88.08,88.08,88.08,88.08,0.0,32.79000000000001,32.79,32.790000000000006,32.790000000000006,32.79,7.105427357601002e-15,44.09,41.19,42.6675,42.69499999999999,41.19,1.0770880883196157
1 -> 2,0.26381100000000013,0.2638109999999998,0.263811,0.263811,0.26381100000000013,1.3877787807814457e-16,88.08,88.08,88.08,88.08,88.08,0.0,32.79000000000001,32.79,32.790000000000006,32.790000000000006,32.79,7.105427357601002e-15,44.09,41.19,42.6675,42.69499999999999,41.19,1.0770880883196157
1 -> 2,0.26381100000000013,0.2638109999999998,0.263811,0.263811,0.26381100000000013,1.3877787807814457e-16,88.08,88.08,88.08,88.08,88.08,0.0,32.79000000000001,32.79,32.790000000000006,32.790000000000006,32.79,7.105427357601002e-15,39.95,34.97,37.53,37.599999999999994,34.97,1.8595026216706456
1 -> 2,0.26381100000000013,0.2638109999999998,0.263811,0.263811,0.26381100000000013,1.3877787807814457e-16,88.08,88.08,88.08,88.08,88.08,0.0,32.79000000000001,32.79,32.790000000000006,32.790000000000006,32.79,7.105427357601002e-15,39.95,34.97,37.53,37.599999999999994,34.97,1.8595026216706456
1 -> 2,0.2625310000000001,0.262531,0.26253100000000007,0.26253100000000007,0.262531,5.551115123125783e-17,88.08,88.08,88.08,88.08,88.08,0.0,32.79000000000001,32.79,32.790000000000006,32.790000000000006,32.79,7.105427357601002e-15,33.17,26.86,30.1525,30.29,26.86,2.348641894797928
1 -> 2,0.2625310000000001,0.262531,0.26253100000000007,0.26253100000000007,0.262531,5.551115123125783e-17,88.08,88.08,88.08,88.08,88.08,0.0,32.79000000000001,32.79,32.790000000000006,32.790000000000006,32.79,7.105427357601002e-15,33.17,26.86,30.1525,30.29,26.86,2.348641894797928
1 -> 2,0.2625310000000001,0.262531,0.26253100000000007,0.26253100000000007,0.262531,5.551115123125783e-17,88.08,88.08,88.08,88.08,88.08,0.0,32.79000000000001,32.79,32.790000000000006,32.790000000000006,32.79,7.105427357601002e-15,23.95,12.36,18.3275,18.5,12.36,4.331422254871949
1 -> 2,0.2625310000000001,0.262531,0.26253100000000007,0.26253100000000007,0.262531,5.551115123125783e-17,88.08,88.08,88.08,88.08,88.08,0.0,32.79000000000001,32.79,32.790000000000006,32.790000000000006,32.79,7.105427357601002e-15,23.95,12.36,18.3275,18.5,12.36,4.331422254871949
1 -> 2,0.2625310000000001,0.262531,0.26253100000000007,0.26253100000000007,0.262531,5.551115123125783e-17,88.08,88.08,88.08,88.08,88.08,0.0,32.79000000000001,32.79,32.790000000000006,32.790000000000006,32.79,7.105427357601002e-15,8.24,-2.56,2.7175,2.595,-2.56,4.021233486133329
1 -> 2,0.2625310000000001,0.262531,0.26253100000000007,0.26253100000000007,0.262531,5.551115123125783e-17,88.08,88.08,88.08,88.08,88.08,0.0,32.79000000000001,32.79,32.790000000000006,32.790000000000006,32.79,7.105427357601002e-15,8.24,-2.56,2.7175,2.595,-2.56,4.021233486133329
1 -> 2,0.2625310000000001,0.262531,0.26253100000000007,0.26253100000000007,0.262531,5.551115123125783e-17,88.08,88.08,88.08,88.08,88.08,0.0,32.79000000000001,32.79,32.790000000000006,32.790000000000006,32.79,7.105427357601002e-15,-5.98,-18.41,-11.985,-11.774999999999999,-18.41,4.637890145313922
1 -> 2,0.2625310000000001,0.262531,0.26253100000000007,0.26253100000000007,0.262531,5.551115123125783e-17,88.08,88.08,88.08,88.08,88.08,0.0,32.79000000000001,32.79,32.790000000000006,32.790000000000006,32.79,7.105427357601002e-15,-5.98,-18.41,-11.985,-11.774999999999999,-18.41,4.637890145313922
1 -> 2,0.2650920000000001,0.26509199999999983,0.265092,0.265092,0.2650920000000001,1.1775693440128312e-16,88.08,88.08,88.08,88.08,88.08,0.0,32.79000000000001,32.79,32.790000000000006,32.790000000000006,32.79,7.105427357601002e-15,-23.25,-37.76,-30.5875,-30.67,-37.76,5.417574987944328
1 -> 2,0.2650920000000001,0.26509199999999983,0.265092,0.265092,0.2650920000000001,1.1775693440128312e-16,88.08,88.08,88.08,88.08,88.08,0.0,32.79000000000001,32.79,32.790000000000006,32.790000000000006,32.79,7.105427357601002e-15,-23.25,-37.76,-30.5875,-30.67,-37.76,5.417574987944328
1 -> 2,0.2650920000000001,0.26509199999999983,0.265092,0.265092,0.2650920000000001,1.1775693440128312e-16,88.08,88.08,88.08,88.08,88.08,0.0,32.79000000000001,32.79,32.790000000000006,32.790000000000006,32.79,7.105427357601002e-15,-41.83,-47.62,-45.36,-45.995,-47.62,2.253630404480734
1 -> 2,0.2650920000000001,0.26509199999999983,0.265092,0.265092,0.2650920000000001,1.1775693440128312e-16,88.08,88.08,88.08,88.08,88.08,0.0,32.79000000000001,32.79,32.790000000000006,32.790000000000006,32.79,7.105427357601002e-15,-41.83,-47.62,-45.36,-45.995,-47.62,2.253630404480734
1 -> 2,0.2650920000000001,0.26509199999999983,0.265092,0.265092,0.2650920000000001,1.1775693440128312e-16,88.08,88.08,88.08,88.08,88.08,0.0,32.79000000000001,32.79,32.790000000000006,32.790000000000006,32.79,7.105427357601002e-15,-40.27,-47.02,-44.002500000000005,-44.36,-47.02,2.539747772909742
1 -> 2,0.2650920000000001,0.26509199999999983,0.265092,0.265092,0.2650920000000001,1.1775693440128312e-16,88.08,88.08,88.08,88.08,88.08,0.0,32.79000000000001,32.79,32.790000000000006,32.790000000000006,32.79,7.105427357601002e-15,-40.27,-47.02,-44.002500000000005,-44.36,-47.02,2.539747772909742
1 -> 2,0.2650920000000001,0.26509199999999983,0.265092,0.265092,0.2650920000000001,1.1775693440128312e-16,88.08,88.08,88.08,88.08,88.08,0.0,32.79000000000001,32.79,32.790000000000006,32.790000000000006,32.79,7.105427357601002e-15,-12.78,-36.19,-25.505,-26.525,-36.19,8.786781265059464
1 -> 2,0.2650920000000001,0.26509199999999983,0.265092,0.265092,0.2650920000000001,1.1775693440128312e-16,88.08,88.08,88.08,88.08,88.08,0.0,32.79000000000001,32.79,32.790000000000006,32.790000000000006,32.79,7.105427357601002e-15,-12.78,-36.19,-25.505,-26.525,-36.19,8.786781265059464
1 -> 2,0.26381100000000013,0.2638109999999998,0.263811,0.263811,0.26381100000000013,1.3877787807814457e-16,88.08,88.08,88.08,88.08,88.08,0.0,32.79000000000001,32.79,32.790000000000006,32.790000000000006,32.79,7.105427357601002e-15,28.87,-1.63,14.295000000000002,14.97,-1.63,11.417577457587052
1 -> 2,0.26381100000000013,0.2638109999999998,0.263811,0.263811,0.26381100000000013,1.3877787807814457e-16,88.08,88.08,88.08,88.08,88.08,0.0,32.79000000000001,32.79,32.790000000000006,32.790000000000006,32.79,7.105427357601002e-15,28.87,-1.63,14.295000000000002,14.97,-1.63,11.417577457587052
1 -> 2,0.26381100000000013,0.2638109999999998,0.263811,0.263811,0.26381100000000013,1.3877787807814457e-16,88.08,88.08,88.08,88.08,88.08,0.0,32.79000000000001,32.79,32.790000000000006,32.790000000000006,32.79,7.105427357601002e-15,45.32,35.49,41.089999999999996,41.775000000000006,35.49,3.71323982527388
1 -> 2,0.26381100000000013,0.2638109999999998,0.263811,0.263811,0.26381100000000013,1.3877787807814457e-16,88.08,88.08,88.08,88.08,88.08,0.0,32.79000000000001,32.79,32.790000000000006,32.790000000000006,32.79,7.105427357601002e-15,45.32,35.49,41.089999999999996,41.775000000000006,35.49,3.71323982527388
1 -> 2,0.26381100000000013,0.2638109999999998,0.263811,0.263811,0.26381100000000013,1.3877787807814457e-16,88.08,88.08,88.08,88.08,88.08,0.0,32.79000000000001,32.79,32.790000000000006,32.790000000000006,32.79,7.105427357601002e-15,46.68,45.95,46.3625,46.41,45.95,0.26394838510587537
1 -> 2,0.26381100000000013,0.2638109999999998,0.263811,0.263811,0.26381100000000013,1.3877787807814457e-16,88.08,88.08,88.08,88.08,88.08,0.0,32.79000000000001,32.79,32.790000000000006,32.790000000000006,32.79,7.105427357601002e-15,46.68,45.95,46.3625,46.41,45.95,0.26394838510587537
1 -> 2,0.26381100000000013,0.2638109999999998,0.263811,0.263811,0.26381100000000013,1.3877787807814457e-16,88.08,88.08,88.08,88.08,88.08,0.0,32.79000000000001,32.79,32.790000000000006,32.790000000000006,32.79,7.105427357601002e-15,45.41,44.4,44.8825,44.86,44.4,0.3712394779653688
1 -> 2,0.26381100000000013,0.2638109999999998,0.263811,0.263811,0.26381100000000013,1.3877787807814457e-16,88.08,88.08,88.08,88.08,88.08,0.0,32.79000000000001,32.79,32.790000000000006,32.790000000000006,32.79,7.105427357601002e-15,45.41,44.4,44.8825,44.86,44.4,0.3712394779653688
