PHASE,EDA_MAX,EDA_MIN,EDA_MEAN,EDA_MEDIAN,EDA_MODE,EDA_SD,EDA_DIFF,HR_MAX,HR_MIN,HR_MEAN,HR_MEDIAN,HR_MODE,HR_SD,HR_DIFF,SKT_MAX,SKT_MIN,SKT_MEAN,SKT_MEDIAN,SKT_MODE,SKT_SD,SKT_DIFF,BVP_MAX,BVP_MIN,BVP_MEAN,BVP_MEDIAN,BVP_MODE,BVP_SD,BVP_DIFF
1 -> 2,0.12162400000000005,0.12162399999999995,0.12162400000000001,0.12162400000000001,0.12162400000000005,4.550137020152556e-17,4.625929269271485e-18,75.0,75.0,75.0,75.0,75.0,0.0,0.0,33.79000000000001,33.78999999999999,33.790000000000006,33.790000000000006,33.79000000000001,8.702335715267317e-15,4.736951571734001e-15,-1.69,-2.58,-2.1375,-2.1399999999999997,-2.58,0.3278242669480099,-0.2966666666666667
1 -> 2,0.12162400000000005,0.12162399999999995,0.12162400000000001,0.12162400000000001,0.12162400000000005,4.550137020152556e-17,4.625929269271485e-18,75.0,75.0,75.0,75.0,75.0,0.0,0.0,33.79000000000001,33.78999999999999,33.790000000000006,33.790000000000006,33.79000000000001,8.702335715267317e-15,4.736951571734001e-15,-1.69,-2.58,-2.1375,-2.1399999999999997,-2.58,0.3278242669480099,-0.2966666666666667
1 -> 2,0.12162400000000005,0.12162399999999995,0.12162400000000001,0.12162400000000001,0.12162400000000005,4.550137020152556e-17,4.625929269271485e-18,75.0,75.0,75.0,75.0,75.0,0.0,0.0,33.79000000000001,33.78999999999999,33.790000000000006,33.790000000000006,33.79000000000001,8.702335715267317e-15,4.736951571734001e-15,-3.07,-5.94,-4.4,-4.295,-5.94,1.0784943208009954,-0.9566666666666669
1 -> 2,0.12162400000000005,0.12162399999999995,0.12162400000000001,0.12162400000000001,0.12162400000000005,4.550137020152556e-17,4.625929269271485e-18,75.0,75.0,75.0,75.0,75.0,0.0,0.0,33.79000000000001,33.78999999999999,33.790000000000006,33.790000000000006,33.79000000000001,8.702335715267317e-15,4.736951571734001e-15,-3.07,-5.94,-4.4,-4.295,-5.94,1.0784943208009954,-0.9566666666666669
1 -> 2,0.12162400000000005,0.12162399999999995,0.12162400000000001,0.12162400000000001,0.12162400000000005,4.550137020152556e-17,4.625929269271485e-18,75.0,75.0,75.0,75.0,75.0,0.0,0.0,33.79000000000001,33.78999999999999,33.790000000000006,33.790000000000006,33.79000000000001,8.702335715267317e-15,4.736951571734001e-15,-7.16,-10.61,-8.915,-8.945,-10.61,1.2860890326878616,-1.1499999999999997
1 -> 2,0.12162400000000005,0.12162399999999995,0.12162400000000001,0.12162400000000001,0.12162400000000005,4.550137020152556e-17,4.625929269271485e-18,75.0,75.0,75.0,75.0,75.0,0.0,0.0,33.79000000000001,33.78999999999999,33.790000000000006,33.790000000000006,33.79000000000001,8.702335715267317e-15,4.736951571734001e-15,-7.16,-10.61,-8.915,-8.945,-10.61,1.2860890326878616,-1.1499999999999997
1 -> 2,0.12162400000000005,0.12162399999999995,0.12162400000000001,0.12162400000000001,0.12162400000000005,4.550137020152556e-17,4.625929269271485e-18,75.0,75.0,75.0,75.0,75.0,0.0,0.0,33.79000000000001,33.78999999999999,33.790000000000006,33.790000000000006,33.79000000000001,8.702335715267317e-15,4.736951571734001e-15,-11.65,-14.27,-13.009999999999998,-13.059999999999999,-14.27,0.9784426401174469,-0.8733333333333331
1 -> 2,0.12162400000000005,0.12162399999999995,0.12162400000000001,0.12162400000000001,0.12162400000000005,4.550137020152556e-17,4.625929269271485e-18,75.0,75.0,75.0,75.0,75.0,0.0,0.0,33.79000000000001,33.78999999999999,33.790000000000006,33.790000000000006,33.79000000000001,8.702335715267317e-15,4.736951571734001e-15,-11.65,-14.27,-13.009999999999998,-13.059999999999999,-14.27,0.9784426401174469,-0.8733333333333331
1 -> 2,0.12034400000000006,0.12034399999999992,0.120344,0.120344,0.12034400000000006,6.088854689467823e-17,-1.3877787807814457e-17,75.0,75.0,75.0,75.0,75.0,0.0,0.0,33.79000000000001,33.78999999999999,33.790000000000006,33.790000000000006,33.79000000000001,8.702335715267317e-15,4.736951571734001e-15,-14.92,-16.7,-15.787500000000001,-15.765,-16.7,0.6611873788874072,-0.5933333333333332
1 -> 2,0.12034400000000006,0.12034399999999992,0.120344,0.120344,0.12034400000000006,6.088854689467823e-17,-1.3877787807814457e-17,75.0,75.0,75.0,75.0,75.0,0.0,0.0,33.79000000000001,33.78999999999999,33.790000000000006,33.790000000000006,33.79000000000001,8.702335715267317e-15,4.736951571734001e-15,-14.92,-16.7,-15.787500000000001,-15.765,-16.7,0.6611873788874072,-0.5933333333333332
1 -> 2,0.12034400000000006,0.12034399999999992,0.120344,0.120344,0.12034400000000006,6.088854689467823e-17,-1.3877787807814457e-17,75.0,75.0,75.0,75.0,75.0,0.0,0.0,33.79000000000001,33.78999999999999,33.790000000000006,33.790000000000006,33.79000000000001,8.702335715267317e-15,4.736951571734001e-15,-17.58,-22.07,-19.68,-19.535,-22.07,1.6833448844488175,-1.4966666666666673
1 -> 2,0.12034400000000006,0.12034399999999992,0.120344,0.120344,0.12034400000000006,6.088854689467823e-17,-1.3877787807814457e-17,75.0,75.0,75.0,75.0,75.0,0.0,0.0,33.79000000000001,33.78999999999999,33.790000000000006,33.790000000000006,33.79000000000001,8.702335715267317e-15,4.736951571734001e-15,-17.58,-22.07,-19.68,-19.535,-22.07,1.6833448844488175,-1.4966666666666673
1 -> 2,0.12034400000000006,0.12034399999999992,0.120344,0.120344,0.12034400000000006,6.088854689467823e-17,-1.3877787807814457e-17,75.0,75.0,75.0,75.0,75.0,0.0,0.0,33.79000000000001,33.78999999999999,33.790000000000006,33.790000000000006,33.79000000000001,8.702335715267317e-15,4.736951571734001e-15,-23.88,-26.5,-25.5475,-25.905,-26.5,1.0504612082318896,-0.8733333333333336
1 -> 2,0.12034400000000006,0.12034399999999992,0.120344,0.120344,0.12034400000000006,6.088854689467823e-17,-1.3877787807814457e-17,75.0,75.0,75.0,75.0,75.0,0.0,0.0,33.79000000000001,33.78999999999999,33.790000000000006,33.790000000000006,33.79000000000001,8.702335715267317e-15,4.736951571734001e-15,-23.88,-26.5,-25.5475,-25.905,-26.5,1.0504612082318896,-0.8733333333333336
1 -> 2,0.12034400000000006,0.12034399999999992,0.120344,0.120344,0.12034400000000006,6.088854689467823e-17,-1.3877787807814457e-17,75.0,75.0,75.0,75.0,75.0,0.0,0.0,33.79000000000001,33.78999999999999,33.790000000000006,33.790000000000006,33.79000000000001,8.702335715267317e-15,4.736951571734001e-15,-17.02,-25.59,-21.732499999999998,-22.16,-25.59,3.2294223554685444,2.856666666666667
1 -> 2,0.12034400000000006,0.12034399999999992,0.120344,0.120344,0.12034400000000006,6.088854689467823e-17,-1.3877787807814457e-17,75.0,75.0,75.0,75.0,75.0,0.0,0.0,33.79000000000001,33.78999999999999,33.790000000000006,33.790000000000006,33.79000000000001,8.702335715267317e-15,4.736951571734001e-15,-17.02,-25.59,-21.732499999999998,-22.16,-25.59,3.2294223554685444,2.856666666666667
1 -> 2,0.11906300000000006,0.11906299999999996,0.11906300000000002,0.11906300000000003,0.11906300000000006,4.1051049941978724e-17,-1.3877787807814457e-17,75.0,75.0,75.0,75.0,75.0,0.0,0.0,33.79000000000001,33.78999999999999,33.790000000000006,33.790000000000006,33.79000000000001,8.702335715267317e-15,4.736951571734001e-15,0.48,-12.81,-6.1325,-6.1,-12.81,4.960878828393212,4.430000000000001
1 -> 2,0.11906300000000006,0.11906299999999996,0.11906300000000002,0.11906300000000003,0.11906300000000006,4.1051049941978724e-17,-1.3877787807814457e-17,75.0,75.0,75.0,75.0,75.0,0.0,0.0,33.79000000000001,33.78999999999999,33.790000000000006,33.790000000000006,33.79000000000001,8.702335715267317e-15,4.736951571734001e-15,0.48,-12.81,-6.1325,-6.1,-12.81,4.960878828393212,4.430000000000001
1 -> 2,0.11906300000000006,0.11906299999999996,0.11906300000000002,0.11906300000000003,0.11906300000000006,4.1051049941978724e-17,-1.3877787807814457e-17,75.0,75.0,75.0,75.0,75.0,0.0,0.0,33.79000000000001,33.78999999999999,33.790000000000006,33.790000000000006,33.79000000000001,8.702335715267317e-15,4.736951571734001e-15,13.66,4.49,9.3475,9.620000000000001,4.49,3.430913690258034,3.0566666666666666
1 -> 2,0.11906300000000006,0.11906299999999996,0.11906300000000002,0.11906300000000003,0.11906300000000006,4.1051049941978724e-17,-1.3877787807814457e-17,75.0,75.0,75.0,75.0,75.0,0.0,0.0,33.79000000000001,33.78999999999999,33.790000000000006,33.790000000000006,33.79000000000001,8.702335715267317e-15,4.736951571734001e-15,13.66,4.49,9.3475,9.620000000000001,4.49,3.430913690258034,3.0566666666666666
1 -> 2,0.11906300000000006,0.11906299999999996,0.11906300000000002,0.11906300000000003,0.11906300000000006,4.1051049941978724e-17,-1.3877787807814457e-17,75.0,75.0,75.0,75.0,75.0,0.0,0.0,33.79000000000001,33.78999999999999,33.790000000000006,33.790000000000006,33.79000000000001,8.702335715267317e-15,4.736951571734001e-15,18.22,15.58,17.12,17.340000000000003,15.58,1.0038924245156946,0.8799999999999996
1 -> 2,0.11906300000000006,0.11906299999999996,0.11906300000000002,0.11906300000000003,0.11906300000000006,4.1051049941978724e-17,-1.3877787807814457e-17,75.0,75.0,75.0,75.0,75.0,0.0,0.0,33.79000000000001,33.78999999999999,33.790000000000006,33.790000000000006,33.79000000000001,8.702335715267317e-15,4.736951571734001e-15,18.22,15.58,17.12,17.340000000000003,15.58,1.0038924245156946,0.8799999999999996
1 -> 2,0.11906300000000006,0.11906299999999996,0.11906300000000002,0.11906300000000003,0.11906300000000006,4.1051049941978724e-17,-1.3877787807814457e-17,75.0,75.0,75.0,75.0,75.0,0.0,0.0,33.79000000000001,33.78999999999999,33.790000000000006,33.790000000000006,33.79000000000001,8.702335715267317e-15,4.736951571734001e-15,18.42,17.9,18.25,18.340000000000003,18.42,0.21236760581595432,-0.17333333333333437
1 -> 2,0.11906300000000006,0.11906299999999996,0.11906300000000002,0.11906300000000003,0.11906300000000006,4.1051049941978724e-17,-1.3877787807814457e-17,75.0,75.0,75.0,75.0,75.0,0.0,0.0,33.79000000000001,33.78999999999999,33.790000000000006,33.790000000000006,33.79000000000001,8.702335715267317e-15,4.736951571734001e-15,18.42,17.9,18.25,18.340000000000003,18.42,0.21236760581595432,-0.17333333333333437
1 -> 2,0.11906300000000006,0.11906299999999996,0.11906300000000002,0.11906300000000003,0.11906300000000006,4.1051049941978724e-17,-1.3877787807814457e-17,75.0,75.0,75.0,75.0,75.0,0.0,0.0,33.79000000000001,33.78999999999999,33.790000000000006,33.790000000000006,33.79000000000001,8.702335715267317e-15,4.736951571734001e-15,17.26,13.47,15.497500000000002,15.63,13.47,1.422785560089784,-1.2633333333333336
1 -> 2,0.11906300000000006,0.11906299999999996,0.11906300000000002,0.11906300000000003,0.11906300000000006,4.1051049941978724e-17,-1.3877787807814457e-17,75.0,75.0,75.0,75.0,75.0,0.0,0.0,33.79000000000001,33.78999999999999,33.790000000000006,33.790000000000006,33.79000000000001,8.702335715267317e-15,4.736951571734001e-15,17.26,13.47,15.497500000000002,15.63,13.47,1.422785560089784,-1.2633333333333336
1 -> 2,0.11906300000000006,0.11906299999999996,0.11906300000000002,0.11906300000000003,0.11906300000000006,4.1051049941978724e-17,-1.3877787807814457e-17,75.0,75.0,75.0,75.0,75.0,0.0,0.0,33.79000000000001,33.78999999999999,33.790000000000006,33.790000000000006,33.79000000000001,8.702335715267317e-15,4.736951571734001e-15,11.92,8.36,10.03,9.92,8.36,1.3305450011179631,-1.1866666666666668
1 -> 2,0.11906300000000006,0.11906299999999996,0.11906300000000002,0.11906300000000003,0.11906300000000006,4.1051049941978724e-17,-1.3877787807814457e-17,75.0,75.0,75.0,75.0,75.0,0.0,0.0,33.79000000000001,33.78999999999999,33.790000000000006,33.790000000000006,33.79000000000001,8.702335715267317e-15,4.736951571734001e-15,11.92,8.36,10.03,9.92,8.36,1.3305450011179631,-1.1866666666666668
1 -> 2,0.11906300000000006,0.11906299999999996,0.11906300000000002,0.11906300000000003,0.11906300000000006,4.1051049941978724e-17,-1.3877787807814457e-17,75.0,75.0,75.0,75.0,75.0,0.0,0.0,33.79000000000001,33.78999999999999,33.790000000000006,33.790000000000006,33.79000000000001,8.702335715267317e-15,4.736951571734001e-15,7.47,3.62,5.6875,5.83,3.62,1.4392945320538113,-1.2833333333333332
1 -> 2,0.11906300000000006,0.11906299999999996,0.11906300000000002,0.11906300000000003,0.11906300000000006,4.1051049941978724e-17,-1.3877787807814457e-17,75.0,75.0,75.0,75.0,75.0,0.0,0.0,33.79000000000001,33.78999999999999,33.790000000000006,33.790000000000006,33.79000000000001,8.702335715267317e-15,4.736951571734001e-15,7.47,3.62,5.6875,5.83,3.62,1.4392945320538113,-1.2833333333333332
1 -> 2,0.11906300000000006,0.11906299999999996,0.11906300000000002,0.11906300000000003,0.11906300000000006,4.1051049941978724e-17,-1.3877787807814457e-17,75.0,75.0,75.0,75.0,75.0,0.0,0.0,33.79000000000001,33.78999999999999,33.790000000000006,33.790000000000006,33.79000000000001,8.702335715267317e-15,4.736951571734001e-15,1.78,-4.21,-1.2175,-1.22,-4.21,2.234965044469376,-1.9966666666666668
1 -> 2,0.11906300000000006,0.11906299999999996,0.11906300000000002,0.11906300000000003,0.11906300000000006,4.1051049941978724e-17,-1.3877787807814457e-17,75.0,75.0,75.0,75.0,75.0,0.0,0.0,33.79000000000001,33.78999999999999,33.790000000000006,33.790000000000006,33.79000000000001,8.702335715267317e-15,4.736951571734001e-15,1.78,-4.21,-1.2175,-1.22,-4.21,2.234965044469376,-1.9966666666666668
1 -> 2,0.11778300000000005,0.11778299999999997,0.11778300000000003,0.11778300000000003,0.11778300000000005,3.671717528720129e-17,-9.25185853854297e-18,71.0,71.0,71.0,71.0,71.0,0.0,0.0,33.81000000000002,33.80999999999998,33.81,33.81,33.81000000000002,1.6280579355608324e-14,2.3684757858670005e-15,-6.13,-11.66,-8.9025,-8.91,-11.66,2.058329116055059,-1.8433333333333335
1 -> 2,0.11778300000000005,0.11778299999999997,0.11778300000000003,0.11778300000000003,0.11778300000000005,3.671717528720129e-17,-9.25185853854297e-18,71.0,71.0,71.0,71.0,71.0,0.0,0.0,33.81000000000002,33.80999999999998,33.81,33.81,33.81000000000002,1.6280579355608324e-14,2.3684757858670005e-15,-6.13,-11.66,-8.9025,-8.91,-11.66,2.058329116055059,-1.8433333333333335
1 -> 2,0.11778300000000005,0.11778299999999997,0.11778300000000003,0.11778300000000003,0.11778300000000005,3.671717528720129e-17,-9.25185853854297e-18,71.0,71.0,71.0,71.0,71.0,0.0,0.0,33.81000000000002,33.80999999999998,33.81,33.81,33.81000000000002,1.6280579355608324e-14,2.3684757858670005e-15,-13.57,-20.54,-16.935000000000002,-16.815,-20.54,2.601081505835601,-2.323333333333333
1 -> 2,0.11778300000000005,0.11778299999999997,0.11778300000000003,0.11778300000000003,0.11778300000000005,3.671717528720129e-17,-9.25185853854297e-18,71.0,71.0,71.0,71.0,71.0,0.0,0.0,33.81000000000002,33.80999999999998,33.81,33.81,33.81000000000002,1.6280579355608324e-14,2.3684757858670005e-15,-13.57,-20.54,-16.935000000000002,-16.815,-20.54,2.601081505835601,-2.323333333333333
1 -> 2,0.11778300000000005,0.11778299999999997,0.11778300000000003,0.11778300000000003,0.11778300000000005,3.671717528720129e-17,-9.25185853854297e-18,71.0,71.0,71.0,71.0,71.0,0.0,0.0,33.81000000000002,33.80999999999998,33.81,33.81,33.81000000000002,1.6280579355608324e-14,2.3684757858670005e-15,-23.2,-28.54,-26.232499999999995,-26.595,-28.54,2.0352810002552473,-1.78
1 -> 2,0.11778300000000005,0.11778299999999997,0.11778300000000003,0.11778300000000003,0.11778300000000005,3.671717528720129e-17,-9.25185853854297e-18,71.0,71.0,71.0,71.0,71.0,0.0,0.0,33.81000000000002,33.80999999999998,33.81,33.81,33.81000000000002,1.6280579355608324e-14,2.3684757858670005e-15,-23.2,-28.54,-26.232499999999995,-26.595,-28.54,2.0352810002552473,-1.78
1 -> 2,0.11778300000000005,0.11778299999999997,0.11778300000000003,0.11778300000000003,0.11778300000000005,3.671717528720129e-17,-9.25185853854297e-18,71.0,71.0,71.0,71.0,71.0,0.0,0.0,33.81000000000002,33.80999999999998,33.81,33.81,33.81000000000002,1.6280579355608324e-14,2.3684757858670005e-15,-24.98,-28.56,-26.925,-27.08,-28.56,1.3578935893507995,1.1933333333333327
1 -> 2,0.11778300000000005,0.11778299999999997,0.11778300000000003,0.11778300000000003,0.11778300000000005,3.671717528720129e-17,-9.25185853854297e-18,71.0,71.0,71.0,71.0,71.0,0.0,0.0,33.81000000000002,33.80999999999998,33.81,33.81,33.81000000000002,1.6280579355608324e-14,2.3684757858670005e-15,-24.98,-28.56,-26.925,-27.08,-28.56,1.3578935893507995,1.1933333333333327
1 -> 2,0.11522300000000006,0.11522299999999996,0.11522300000000003,0.11522300000000003,0.11522300000000006,4.220764384040162e-17,1.3877787807814457e-17,71.0,71.0,71.0,71.0,71.0,0.0,0.0,33.81000000000002,33.80999999999998,33.81,33.81,33.81000000000002,1.6280579355608324e-14,2.3684757858670005e-15,-21.15,-23.69,-22.3375,-22.255000000000003,-23.69,0.9461864245485672,0.8466666666666676
1 -> 2,0.11522300000000006,0.11522299999999996,0.11522300000000003,0.11522300000000003,0.11522300000000006,4.220764384040162e-17,1.3877787807814457e-17,71.0,71.0,71.0,71.0,71.0,0.0,0.0,33.81000000000002,33.80999999999998,33.81,33.81,33.81000000000002,1.6280579355608324e-14,2.3684757858670005e-15,-21.15,-23.69,-22.3375,-22.255000000000003,-23.69,0.9461864245485672,0.8466666666666676
1 -> 2,0.11522300000000006,0.11522299999999996,0.11522300000000003,0.11522300000000003,0.11522300000000006,4.220764384040162e-17,1.3877787807814457e-17,71.0,71.0,71.0,71.0,71.0,0.0,0.0,33.81000000000002,33.80999999999998,33.81,33.81,33.81000000000002,1.6280579355608324e-14,2.3684757858670005e-15,-16.24,-20.46,-18.65,-18.95,-20.46,1.5877184889016072,1.4066666666666674
1 -> 2,0.11522300000000006,0.11522299999999996,0.11522300000000003,0.11522300000000003,0.11522300000000006,4.220764384040162e-17,1.3877787807814457e-17,71.0,71.0,71.0,71.0,71.0,0.0,0.0,33.81000000000002,33.80999999999998,33.81,33.81,33.81000000000002,1.6280579355608324e-14,2.3684757858670005e-15,-16.24,-20.46,-18.65,-18.95,-20.46,1.5877184889016072,1.4066666666666674
1 -> 2,0.11522300000000006,0.11522299999999996,0.11522300000000003,0.11522300000000003,0.11522300000000006,4.220764384040162e-17,1.3877787807814457e-17,71.0,71.0,71.0,71.0,71.0,0.0,0.0,33.81000000000002,33.80999999999998,33.81,33.81,33.81000000000002,1.6280579355608324e-14,2.3684757858670005e-15,5.85,-12.95,-4.2425,-4.9350000000000005,-12.95,7.054329787442603,6.266666666666666
1 -> 2,0.11522300000000006,0.11522299999999996,0.11522300000000003,0.11522300000000003,0.11522300000000006,4.220764384040162e-17,1.3877787807814457e-17,71.0,71.0,71.0,71.0,71.0,0.0,0.0,33.81000000000002,33.80999999999998,33.81,33.81,33.81000000000002,1.6280579355608324e-14,2.3684757858670005e-15,5.85,-12.95,-4.2425,-4.9350000000000005,-12.95,7.054329787442603,6.266666666666666
1 -> 2,0.11522300000000006,0.11522299999999996,0.11522300000000003,0.11522300000000003,0.11522300000000006,4.220764384040162e-17,1.3877787807814457e-17,71.0,71.0,71.0,71.0,71.0,0.0,0.0,33.81000000000002,33.80999999999998,33.81,33.81,33.81000000000002,1.6280579355608324e-14,2.3684757858670005e-15,34.4,13.96,24.7275,25.275,13.96,7.650298605283325,6.813333333333333
1 -> 2,0.11522300000000006,0.11522299999999996,0.11522300000000003,0.11522300000000003,0.11522300000000006,4.220764384040162e-17,1.3877787807814457e-17,71.0,71.0,71.0,71.0,71.0,0.0,0.0,33.81000000000002,33.80999999999998,33.81,33.81,33.81000000000002,1.6280579355608324e-14,2.3684757858670005e-15,34.4,13.96,24.7275,25.275,13.96,7.650298605283325,6.813333333333333
1 -> 2,0.11394200000000006,0.11394200000000002,0.11394200000000004,0.11394200000000006,0.11394200000000006,1.8358587643600646e-17,1.3877787807814457e-17,71.0,71.0,71.0,71.0,71.0,0.0,0.0,33.81000000000002,33.80999999999998,33.81,33.81,33.81000000000002,1.6280579355608324e-14,2.3684757858670005e-15,46.07,38.77,42.815,43.21,38.77,2.743232582192037,2.4333333333333322
1 -> 2,0.11394200000000006,0.11394200000000002,0.11394200000000004,0.11394200000000006,0.11394200000000006,1.8358587643600646e-17,1.3877787807814457e-17,71.0,71.0,71.0,71.0,71.0,0.0,0.0,33.81000000000002,33.80999999999998,33.81,33.81,33.81000000000002,1.6280579355608324e-14,2.3684757858670005e-15,46.07,38.77,42.815,43.21,38.77,2.743232582192037,2.4333333333333322
1 -> 2,0.11394200000000006,0.11394200000000002,0.11394200000000004,0.11394200000000006,0.11394200000000006,1.8358587643600646e-17,1.3877787807814457e-17,71.0,71.0,71.0,71.0,71.0,0.0,0.0,33.81000000000002,33.80999999999998,33.81,33.81,33.81000000000002,1.6280579355608324e-14,2.3684757858670005e-15,47.49,46.55,47.1075,47.195,46.55,0.35159458186951753,-0.18000000000000208
1 -> 2,0.11394200000000006,0.11394200000000002,0.11394200000000004,0.11394200000000006,0.11394200000000006,1.8358587643600646e-17,1.3877787807814457e-17,71.0,71.0,71.0,71.0,71.0,0.0,0.0,33.81000000000002,33.80999999999998,33.81,33.81,33.81000000000002,1.6280579355608324e-14,2.3684757858670005e-15,47.49,46.55,47.1075,47.195,46.55,0.35159458186951753,-0.18000000000000208
1 -> 2,0.11394200000000006,0.11394200000000002,0.11394200000000004,0.11394200000000006,0.11394200000000006,1.8358587643600646e-17,1.3877787807814457e-17,71.0,71.0,71.0,71.0,71.0,0.0,0.0,33.81000000000002,33.80999999999998,33.81,33.81,33.81000000000002,1.6280579355608324e-14,2.3684757858670005e-15,45.14,32.55,39.795,40.745000000000005,32.55,4.765083944696045,-4.196666666666668
1 -> 2,0.11394200000000006,0.11394200000000002,0.11394200000000004,0.11394200000000006,0.11394200000000006,1.8358587643600646e-17,1.3877787807814457e-17,71.0,71.0,71.0,71.0,71.0,0.0,0.0,33.81000000000002,33.80999999999998,33.81,33.81,33.81000000000002,1.6280579355608324e-14,2.3684757858670005e-15,45.14,32.55,39.795,40.745000000000005,32.55,4.765083944696045,-4.196666666666668
1 -> 2,0.11394200000000006,0.11394200000000002,0.11394200000000004,0.11394200000000006,0.11394200000000006,1.8358587643600646e-17,1.3877787807814457e-17,71.0,71.0,71.0,71.0,71.0,0.0,0.0,33.81000000000002,33.80999999999998,33.81,33.81,33.81000000000002,1.6280579355608324e-14,2.3684757858670005e-15,23.88,-9.1,7.389999999999999,7.390000000000001,-9.1,12.353400341606354,-10.993333333333332
1 -> 2,0.11394200000000006,0.11394200000000002,0.11394200000000004,0.11394200000000006,0.11394200000000006,1.8358587643600646e-17,1.3877787807814457e-17,71.0,71.0,71.0,71.0,71.0,0.0,0.0,33.81000000000002,33.80999999999998,33.81,33.81,33.81000000000002,1.6280579355608324e-14,2.3684757858670005e-15,23.88,-9.1,7.389999999999999,7.390000000000001,-9.1,12.353400341606354,-10.993333333333332
1 -> 2,0.11906300000000006,0.11906299999999996,0.11906300000000002,0.11906300000000003,0.11906300000000006,4.1051049941978724e-17,-1.3877787807814457e-17,71.0,71.0,71.0,71.0,71.0,0.0,0.0,33.81000000000002,33.80999999999998,33.81,33.81,33.81000000000002,1.6280579355608324e-14,2.3684757858670005e-15,-17.52,-26.93,-23.262500000000003,-24.3,-26.93,3.617093964773379,-3.1366666666666667
1 -> 2,0.11906300000000006,0.11906299999999996,0.11906300000000002,0.11906300000000003,0.11906300000000006,4.1051049941978724e-17,-1.3877787807814457e-17,71.0,71.0,71.0,71.0,71.0,0.0,0.0,33.81000000000002,33.80999999999998,33.81,33.81,33.81000000000002,1.6280579355608324e-14,2.3684757858670005e-15,-17.52,-26.93,-23.262500000000003,-24.3,-26.93,3.617093964773379,-3.1366666666666667
1 -> 2,0.11906300000000006,0.11906299999999996,0.11906300000000002,0.11906300000000003,0.11906300000000006,4.1051049941978724e-17,-1.3877787807814457e-17,71.0,71.0,71.0,71.0,71.0,0.0,0.0,33.81000000000002,33.80999999999998,33.81,33.81,33.81000000000002,1.6280579355608324e-14,2.3684757858670005e-15,-28.2,-40.41,-33.5025,-32.7,-40.41,4.626155936628162,-4.069999999999999
1 -> 2,0.11906300000000006,0.11906299999999996,0.11906300000000002,0.11906300000000003,0.11906300000000006,4.1051049941978724e-17,-1.3877787807814457e-17,71.0,71.0,71.0,71.0,71.0,0.0,0.0,33.81000000000002,33.80999999999998,33.81,33.81,33.81000000000002,1.6280579355608324e-14,2.3684757858670005e-15,-28.2,-40.41,-33.5025,-32.7,-40.41,4.626155936628162,-4.069999999999999
1 -> 2,0.11906300000000006,0.11906299999999996,0.11906300000000002,0.11906300000000003,0.11906300000000006,4.1051049941978724e-17,-1.3877787807814457e-17,71.0,71.0,71.0,71.0,71.0,0.0,0.0,33.81000000000002,33.80999999999998,33.81,33.81,33.81000000000002,1.6280579355608324e-14,2.3684757858670005e-15,-47.18,-71.93,-59.222500000000004,-58.89,-71.93,9.23312887108157,-8.250000000000002
1 -> 2,0.11906300000000006,0.11906299999999996,0.11906300000000002,0.11906300000000003,0.11906300000000006,4.1051049941978724e-17,-1.3877787807814457e-17,71.0,71.0,71.0,71.0,71.0,0.0,0.0,33.81000000000002,33.80999999999998,33.81,33.81,33.81000000000002,1.6280579355608324e-14,2.3684757858670005e-15,-47.18,-71.93,-59.222500000000004,-58.89,-71.93,9.23312887108157,-8.250000000000002
1 -> 2,0.11906300000000006,0.11906299999999996,0.11906300000000002,0.11906300000000003,0.11906300000000006,4.1051049941978724e-17,-1.3877787807814457e-17,71.0,71.0,71.0,71.0,71.0,0.0,0.0,33.81000000000002,33.80999999999998,33.81,33.81,33.81000000000002,1.6280579355608324e-14,2.3684757858670005e-15,-80.98,-96.9,-90.475,-92.00999999999999,-96.9,6.179338556835998,-5.3066666666666675
1 -> 2,0.11906300000000006,0.11906299999999996,0.11906300000000002,0.11906300000000003,0.11906300000000006,4.1051049941978724e-17,-1.3877787807814457e-17,71.0,71.0,71.0,71.0,71.0,0.0,0.0,33.81000000000002,33.80999999999998,33.81,33.81,33.81000000000002,1.6280579355608324e-14,2.3684757858670005e-15,-80.98,-96.9,-90.475,-92.00999999999999,-96.9,6.179338556835998,-5.3066666666666675
1 -> 2,0.11650300000000005,0.11650299999999994,0.11650300000000001,0.11650300000000001,0.11650300000000005,5.003707553108401e-17,9.25185853854297e-18,75.0,75.0,75.0,75.0,75.0,0.0,0.0,33.81000000000002,33.80999999999998,33.81,33.81,33.81000000000002,1.6280579355608324e-14,2.3684757858670005e-15,-67.62,-94.47,-82.155,-83.265,-94.47,10.120075345569319,8.949999999999998
1 -> 2,0.11650300000000005,0.11650299999999994,0.11650300000000001,0.11650300000000001,0.11650300000000005,5.003707553108401e-17,9.25185853854297e-18,75.0,75.0,75.0,75.0,75.0,0.0,0.0,33.81000000000002,33.80999999999998,33.81,33.81,33.81000000000002,1.6280579355608324e-14,2.3684757858670005e-15,-67.62,-94.47,-82.155,-83.265,-94.47,10.120075345569319,8.949999999999998
1 -> 2,0.11650300000000005,0.11650299999999994,0.11650300000000001,0.11650300000000001,0.11650300000000005,5.003707553108401e-17,9.25185853854297e-18,75.0,75.0,75.0,75.0,75.0,0.0,0.0,33.81000000000002,33.80999999999998,33.81,33.81,33.81000000000002,1.6280579355608324e-14,2.3684757858670005e-15,-16.95,-56.04,-37.022499999999994,-37.55,-56.04,14.563070375096043,13.030000000000001
1 -> 2,0.11650300000000005,0.11650299999999994,0.11650300000000001,0.11650300000000001,0.11650300000000005,5.003707553108401e-17,9.25185853854297e-18,75.0,75.0,75.0,75.0,75.0,0.0,0.0,33.81000000000002,33.80999999999998,33.81,33.81,33.81000000000002,1.6280579355608324e-14,2.3684757858670005e-15,-16.95,-56.04,-37.022499999999994,-37.55,-56.04,14.563070375096043,13.030000000000001
1 -> 2,0.11650300000000005,0.11650299999999994,0.11650300000000001,0.11650300000000001,0.11650300000000005,5.003707553108401e-17,9.25185853854297e-18,75.0,75.0,75.0,75.0,75.0,0.0,0.0,33.81000000000002,33.80999999999998,33.81,33.81,33.81000000000002,1.6280579355608324e-14,2.3684757858670005e-15,40.45,-1.71,20.205000000000002,21.04,-1.71,15.782560787147313,14.053333333333335
1 -> 2,0.11650300000000005,0.11650299999999994,0.11650300000000001,0.11650300000000001,0.11650300000000005,5.003707553108401e-17,9.25185853854297e-18,75.0,75.0,75.0,75.0,75.0,0.0,0.0,33.81000000000002,33.80999999999998,33.81,33.81,33.81000000000002,1.6280579355608324e-14,2.3684757858670005e-15,40.45,-1.71,20.205000000000002,21.04,-1.71,15.782560787147313,14.053333333333335
1 -> 2,0.11650300000000005,0.11650299999999994,0.11650300000000001,0.11650300000000001,0.11650300000000005,5.003707553108401e-17,9.25185853854297e-18,75.0,75.0,75.0,75.0,75.0,0.0,0.0,33.81000000000002,33.80999999999998,33.81,33.81,33.81000000000002,1.6280579355608324e-14,2.3684757858670005e-15,56.49,49.42,53.8975,54.84,49.42,2.672165554377198,1.836666666666666
1 -> 2,0.11650300000000005,0.11650299999999994,0.11650300000000001,0.11650300000000001,0.11650300000000005,5.003707553108401e-17,9.25185853854297e-18,75.0,75.0,75.0,75.0,75.0,0.0,0.0,33.81000000000002,33.80999999999998,33.81,33.81,33.81000000000002,1.6280579355608324e-14,2.3684757858670005e-15,56.49,49.42,53.8975,54.84,49.42,2.672165554377198,1.836666666666666
1 -> 2,0.11266200000000005,0.11266199999999993,0.11266200000000001,0.11266200000000004,0.11266200000000005,5.099024833164444e-17,2.7755575615628914e-17,75.0,75.0,75.0,75.0,75.0,0.0,0.0,33.81000000000002,33.80999999999998,33.81,33.81,33.81000000000002,1.6280579355608324e-14,2.3684757858670005e-15,50.72,33.11,41.795,41.675,33.11,6.614788356402643,-5.87
1 -> 2,0.11266200000000005,0.11266199999999993,0.11266200000000001,0.11266200000000004,0.11266200000000005,5.099024833164444e-17,2.7755575615628914e-17,75.0,75.0,75.0,75.0,75.0,0.0,0.0,33.81000000000002,33.80999999999998,33.81,33.81,33.81000000000002,1.6280579355608324e-14,2.3684757858670005e-15,50.72,33.11,41.795,41.675,33.11,6.614788356402643,-5.87
1 -> 2,0.11266200000000005,0.11266199999999993,0.11266200000000001,0.11266200000000004,0.11266200000000005,5.099024833164444e-17,2.7755575615628914e-17,75.0,75.0,75.0,75.0,75.0,0.0,0.0,33.81000000000002,33.80999999999998,33.81,33.81,33.81000000000002,1.6280579355608324e-14,2.3684757858670005e-15,29.55,26.63,27.8925,27.695,26.63,1.0641516574248244,-0.9733333333333339
1 -> 2,0.11266200000000005,0.11266199999999993,0.11266200000000001,0.11266200000000004,0.11266200000000005,5.099024833164444e-17,2.7755575615628914e-17,75.0,75.0,75.0,75.0,75.0,0.0,0.0,33.81000000000002,33.80999999999998,33.81,33.81,33.81000000000002,1.6280579355608324e-14,2.3684757858670005e-15,29.55,26.63,27.8925,27.695,26.63,1.0641516574248244,-0.9733333333333339
1 -> 2,0.11266200000000005,0.11266199999999993,0.11266200000000001,0.11266200000000004,0.11266200000000005,5.099024833164444e-17,2.7755575615628914e-17,75.0,75.0,75.0,75.0,75.0,0.0,0.0,33.81000000000002,33.80999999999998,33.81,33.81,33.81000000000002,1.6280579355608324e-14,2.3684757858670005e-15,23.79,-3.15,11.6775,13.035,-3.15,10.179968995532354,-8.979999999999999
1 -> 2,0.11266200000000005,0.11266199999999993,0.11266200000000001,0.11266200000000004,0.11266200000000005,5.099024833164444e-17,2.7755575615628914e-17,75.0,75.0,75.0,75.0,75.0,0.0,0.0,33.81000000000002,33.80999999999998,33.81,33.81,33.81000000000002,1.6280579355608324e-14,2.3684757858670005e-15,23.79,-3.15,11.6775,13.035,-3.15,10.179968995532354,-8.979999999999999
1 -> 2,0.11266200000000005,0.11266199999999993,0.11266200000000001,0.11266200000000004,0.11266200000000005,5.099024833164444e-17,2.7755575615628914e-17,75.0,75.0,75.0,75.0,75.0,0.0,0.0,33.81000000000002,33.80999999999998,33.81,33.81,33.81000000000002,1.6280579355608324e-14,2.3684757858670005e-15,-12.68,-21.02,-17.192500000000003,-17.535,-21.02,3.858026535678571,0.456666666666667
1 -> 2,0.11266200000000005,0.11266199999999993,0.11266200000000001,0.11266200000000004,0.11266200000000005,5.099024833164444e-17,2.7755575615628914e-17,75.0,75.0,75.0,75.0,75.0,0.0,0.0,33.81000000000002,33.80999999999998,33.81,33.81,33.81000000000002,1.6280579355608324e-14,2.3684757858670005e-15,-12.68,-21.02,-17.192500000000003,-17.535,-21.02,3.858026535678571,0.456666666666667
1 -> 2,0.11778300000000005,0.11778299999999997,0.11778300000000003,0.11778300000000003,0.11778300000000005,3.671717528720129e-17,-9.25185853854297e-18,75.0,75.0,75.0,75.0,75.0,0.0,0.0,33.81000000000002,33.80999999999998,33.81,33.81,33.81000000000002,1.6280579355608324e-14,2.3684757858670005e-15,54.57,2.94,30.2425,31.729999999999997,2.94,19.46409434702781,17.21
1 -> 2,0.11778300000000005,0.11778299999999997,0.11778300000000003,0.11778300000000003,0.11778300000000005,3.671717528720129e-17,-9.25185853854297e-18,75.0,75.0,75.0,75.0,75.0,0.0,0.0,33.81000000000002,33.80999999999998,33.81,33.81,33.81000000000002,1.6280579355608324e-14,2.3684757858670005e-15,54.57,2.94,30.2425,31.729999999999997,2.94,19.46409434702781,17.21
1 -> 2,0.11778300000000005,0.11778299999999997,0.11778300000000003,0.11778300000000003,0.11778300000000005,3.671717528720129e-17,-9.25185853854297e-18,75.0,75.0,75.0,75.0,75.0,0.0,0.0,33.81000000000002,33.80999999999998,33.81,33.81,33.81000000000002,1.6280579355608324e-14,2.3684757858670005e-15,60.62,45.22,54.6125,56.305,45.22,6.10729635354303,-5.133333333333333
1 -> 2,0.11778300000000005,0.11778299999999997,0.11778300000000003,0.11778300000000003,0.11778300000000005,3.671717528720129e-17,-9.25185853854297e-18,75.0,75.0,75.0,75.0,75.0,0.0,0.0,33.81000000000002,33.80999999999998,33.81,33.81,33.81000000000002,1.6280579355608324e-14,2.3684757858670005e-15,60.62,45.22,54.6125,56.305,45.22,6.10729635354303,-5.133333333333333
1 -> 2,0.11778300000000005,0.11778299999999997,0.11778300000000003,0.11778300000000003,0.11778300000000005,3.671717528720129e-17,-9.25185853854297e-18,75.0,75.0,75.0,75.0,75.0,0.0,0.0,33.81000000000002,33.80999999999998,33.81,33.81,33.81000000000002,1.6280579355608324e-14,2.3684757858670005e-15,38.14,31.21,33.51,32.345,31.21,2.817472271380856,-2.31
1 -> 2,0.11778300000000005,0.11778299999999997,0.11778300000000003,0.11778300000000003,0.11778300000000005,3.671717528720129e-17,-9.25185853854297e-18,75.0,75.0,75.0,75.0,75.0,0.0,0.0,33.81000000000002,33.80999999999998,33.81,33.81,33.81000000000002,1.6280579355608324e-14,2.3684757858670005e-15,38.14,31.21,33.51,32.345,31.21,2.817472271380856,-2.31
1 -> 2,0.11778300000000005,0.11778299999999997,0.11778300000000003,0.11778300000000003,0.11778300000000005,3.671717528720129e-17,-9.25185853854297e-18,75.0,75.0,75.0,75.0,75.0,0.0,0.0,33.81000000000002,33.80999999999998,33.81,33.81,33.81000000000002,1.6280579355608324e-14,2.3684757858670005e-15,42.18,32.63,37.0875,36.769999999999996,32.63,3.586414469912812,3.1833333333333322
1 -> 2,0.11778300000000005,0.11778299999999997,0.11778300000000003,0.11778300000000003,0.11778300000000005,3.671717528720129e-17,-9.25185853854297e-18,75.0,75.0,75.0,75.0,75.0,0.0,0.0,33.81000000000002,33.80999999999998,33.81,33.81,33.81000000000002,1.6280579355608324e-14,2.3684757858670005e-15,42.18,32.63,37.0875,36.769999999999996,32.63,3.586414469912812,3.1833333333333322
1 -> 2,0.11778300000000005,0.11778299999999997,0.11778300000000003,0.11778300000000003,0.11778300000000005,3.671717528720129e-17,-9.25185853854297e-18,75.0,75.0,75.0,75.0,75.0,0.0,0.0,33.81000000000002,33.80999999999998,33.81,33.81,33.81000000000002,1.6280579355608324e-14,2.3684757858670005e-15,51.28,45.89,49.2525,49.92,45.89,2.127984668647779,1.7966666666666669
1 -> 2,0.11778300000000005,0.11778299999999997,0.11778300000000003,0.11778300000000003,0.11778300000000005,3.671717528720129e-17,-9.25185853854297e-18,75.0,75.0,75.0,75.0,75.0,0.0,0.0,33.81000000000002,33.80999999999998,33.81,33.81,33.81000000000002,1.6280579355608324e-14,2.3684757858670005e-15,51.28,45.89,49.2525,49.92,45.89,2.127984668647779,1.7966666666666669
1 -> 2,0.11778300000000005,0.11778299999999997,0.11778300000000003,0.11778300000000003,0.11778300000000005,3.671717528720129e-17,-9.25185853854297e-18,75.0,75.0,75.0,75.0,75.0,0.0,0.0,33.81000000000002,33.80999999999998,33.81,33.81,33.81000000000002,1.6280579355608324e-14,2.3684757858670005e-15,50.28,42.85,46.74,46.915,42.85,2.789758054025474,-2.4766666666666666
1 -> 2,0.11778300000000005,0.11778299999999997,0.11778300000000003,0.11778300000000003,0.11778300000000005,3.671717528720129e-17,-9.25185853854297e-18,75.0,75.0,75.0,75.0,75.0,0.0,0.0,33.81000000000002,33.80999999999998,33.81,33.81,33.81000000000002,1.6280579355608324e-14,2.3684757858670005e-15,50.28,42.85,46.74,46.915,42.85,2.789758054025474,-2.4766666666666666
1 -> 2,0.11778300000000005,0.11778299999999997,0.11778300000000003,0.11778300000000003,0.11778300000000005,3.671717528720129e-17,-9.25185853854297e-18,75.0,75.0,75.0,75.0,75.0,0.0,0.0,33.81000000000002,33.80999999999998,33.81,33.81,33.81000000000002,1.6280579355608324e-14,2.3684757858670005e-15,40.01,26.92,34.082499999999996,34.7,26.92,4.8973328200154,-4.363333333333332
1 -> 2,0.11778300000000005,0.11778299999999997,0.11778300000000003,0.11778300000000003,0.11778300000000005,3.671717528720129e-17,-9.25185853854297e-18,75.0,75.0,75.0,75.0,75.0,0.0,0.0,33.81000000000002,33.80999999999998,33.81,33.81,33.81000000000002,1.6280579355608324e-14,2.3684757858670005e-15,40.01,26.92,34.082499999999996,34.7,26.92,4.8973328200154,-4.363333333333332
1 -> 2,0.11778300000000005,0.11778299999999997,0.11778300000000003,0.11778300000000003,0.11778300000000005,3.671717528720129e-17,-9.25185853854297e-18,75.0,75.0,75.0,75.0,75.0,0.0,0.0,33.81000000000002,33.80999999999998,33.81,33.81,33.81000000000002,1.6280579355608324e-14,2.3684757858670005e-15,19.56,-6.27,6.534999999999999,6.425,-6.27,9.670223627197045,-8.61
1 -> 2,0.11778300000000005,0.11778299999999997,0.11778300000000003,0.11778300000000003,0.11778300000000005,3.671717528720129e-17,-9.25185853854297e-18,75.0,75.0,75.0,75.0,75.0,0.0,0.0,33.81000000000002,33.80999999999998,33.81,33.81,33.81000000000002,1.6280579355608324e-14,2.3684757858670005e-15,19.56,-6.27,6.534999999999999,6.425,-6.27,9.670223627197045,-8.61
1 -> 2,0.11394200000000006,0.11394200000000002,0.11394200000000004,0.11394200000000006,0.11394200000000006,1.8358587643600646e-17,1.3877787807814457e-17,99.75,99.75,99.75,99.75,99.75,0.0,0.0,33.81000000000002,33.80999999999998,33.81,33.81,33.81000000000002,1.6280579355608324e-14,2.3684757858670005e-15,-12.74,-20.65,-17.4775,-18.259999999999998,-20.65,3.0254452151708184,-2.6366666666666663
1 -> 2,0.11394200000000006,0.11394200000000002,0.11394200000000004,0.11394200000000006,0.11394200000000006,1.8358587643600646e-17,1.3877787807814457e-17,99.75,99.75,99.75,99.75,99.75,0.0,0.0,33.81000000000002,33.80999999999998,33.81,33.81,33.81000000000002,1.6280579355608324e-14,2.3684757858670005e-15,-12.74,-20.65,-17.4775,-18.259999999999998,-20.65,3.0254452151708184,-2.6366666666666663
1 -> 2,0.11394200000000006,0.11394200000000002,0.11394200000000004,0.11394200000000006,0.11394200000000006,1.8358587643600646e-17,1.3877787807814457e-17,99.75,99.75,99.75,99.75,99.75,0.0,0.0,33.81000000000002,33.80999999999998,33.81,33.81,33.81000000000002,1.6280579355608324e-14,2.3684757858670005e-15,-21.51,-28.15,-24.3675,-23.905,-28.15,2.514879470272879,-2.2133333333333325
1 -> 2,0.11394200000000006,0.11394200000000002,0.11394200000000004,0.11394200000000006,0.11394200000000006,1.8358587643600646e-17,1.3877787807814457e-17,99.75,99.75,99.75,99.75,99.75,0.0,0.0,33.81000000000002,33.80999999999998,33.81,33.81,33.81000000000002,1.6280579355608324e-14,2.3684757858670005e-15,-21.51,-28.15,-24.3675,-23.905,-28.15,2.514879470272879,-2.2133333333333325
1 -> 2,0.11394200000000006,0.11394200000000002,0.11394200000000004,0.11394200000000006,0.11394200000000006,1.8358587643600646e-17,1.3877787807814457e-17,99.75,99.75,99.75,99.75,99.75,0.0,0.0,33.81000000000002,33.80999999999998,33.81,33.81,33.81000000000002,1.6280579355608324e-14,2.3684757858670005e-15,-32.05,-43.01,-37.839999999999996,-38.15,-43.01,4.11992111574967,-3.6533333333333338
1 -> 2,0.11394200000000006,0.11394200000000002,0.11394200000000004,0.11394200000000006,0.11394200000000006,1.8358587643600646e-17,1.3877787807814457e-17,99.75,99.75,99.75,99.75,99.75,0.0,0.0,33.81000000000002,33.80999999999998,33.81,33.81,33.81000000000002,1.6280579355608324e-14,2.3684757858670005e-15,-32.05,-43.01,-37.839999999999996,-38.15,-43.01,4.11992111574967,-3.6533333333333338
1 -> 2,0.11394200000000006,0.11394200000000002,0.11394200000000004,0.11394200000000006,0.11394200000000006,1.8358587643600646e-17,1.3877787807814457e-17,99.75,99.75,99.75,99.75,99.75,0.0,0.0,33.81000000000002,33.80999999999998,33.81,33.81,33.81000000000002,1.6280579355608324e-14,2.3684757858670005e-15,-39.91,-44.56,-42.964999999999996,-43.695,-44.56,1.8888687090425331,1.5500000000000018
1 -> 2,0.11394200000000006,0.11394200000000002,0.11394200000000004,0.11394200000000006,0.11394200000000006,1.8358587643600646e-17,1.3877787807814457e-17,99.75,99.75,99.75,99.75,99.75,0.0,0.0,33.81000000000002,33.80999999999998,33.81,33.81,33.81000000000002,1.6280579355608324e-14,2.3684757858670005e-15,-39.91,-44.56,-42.964999999999996,-43.695,-44.56,1.8888687090425331,1.5500000000000018
1 -> 2,0.11650300000000005,0.11650299999999994,0.11650300000000001,0.11650300000000001,0.11650300000000005,5.003707553108401e-17,9.25185853854297e-18,99.75,99.75,99.75,99.75,99.75,0.0,0.0,33.81000000000002,33.80999999999998,33.81,33.81,33.81000000000002,1.6280579355608324e-14,2.3684757858670005e-15,-19.46,-35.87,-27.965000000000003,-28.265,-35.87,6.127481130121902,5.469999999999999
1 -> 2,0.11650300000000005,0.11650299999999994,0.11650300000000001,0.11650300000000001,0.11650300000000005,5.003707553108401e-17,9.25185853854297e-18,99.75,99.75,99.75,99.75,99.75,0.0,0.0,33.81000000000002,33.80999999999998,33.81,33.81,33.81000000000002,1.6280579355608324e-14,2.3684757858670005e-15,-19.46,-35.87,-27.965000000000003,-28.265,-35.87,6.127481130121902,5.469999999999999
1 -> 2,0.11650300000000005,0.11650299999999994,0.11650300000000001,0.11650300000000001,0.11650300000000005,5.003707553108401e-17,9.25185853854297e-18,99.75,99.75,99.75,99.75,99.75,0.0,0.0,33.81000000000002,33.80999999999998,33.81,33.81,33.81000000000002,1.6280579355608324e-14,2.3684757858670005e-15,7.08,-12.97,-2.895000000000001,-2.845,-12.97,7.482106989344646,6.683333333333334
1 -> 2,0.11650300000000005,0.11650299999999994,0.11650300000000001,0.11650300000000001,0.11650300000000005,5.003707553108401e-17,9.25185853854297e-18,99.75,99.75,99.75,99.75,99.75,0.0,0.0,33.81000000000002,33.80999999999998,33.81,33.81,33.81000000000002,1.6280579355608324e-14,2.3684757858670005e-15,7.08,-12.97,-2.895000000000001,-2.845,-12.97,7.482106989344646,6.683333333333334
1 -> 2,0.11650300000000005,0.11650299999999994,0.11650300000000001,0.11650300000000001,0.11650300000000005,5.003707553108401e-17,9.25185853854297e-18,99.75,99.75,99.75,99.75,99.75,0.0,0.0,33.81000000000002,33.80999999999998,33.81,33.81,33.81000000000002,1.6280579355608324e-14,2.3684757858670005e-15,28.46,13.2,21.09,21.35,13.2,5.692262291918742,5.086666666666667
1 -> 2,0.11650300000000005,0.11650299999999994,0.11650300000000001,0.11650300000000001,0.11650300000000005,5.003707553108401e-17,9.25185853854297e-18,99.75,99.75,99.75,99.75,99.75,0.0,0.0,33.81000000000002,33.80999999999998,33.81,33.81,33.81000000000002,1.6280579355608324e-14,2.3684757858670005e-15,28.46,13.2,21.09,21.35,13.2,5.692262291918742,5.086666666666667
1 -> 2,0.11650300000000005,0.11650299999999994,0.11650300000000001,0.11650300000000001,0.11650300000000005,5.003707553108401e-17,9.25185853854297e-18,99.75,99.75,99.75,99.75,99.75,0.0,0.0,33.81000000000002,33.80999999999998,33.81,33.81,33.81000000000002,1.6280579355608324e-14,2.3684757858670005e-15,39.77,32.5,36.645,37.155,32.5,2.7689032124651822,2.4233333333333342
1 -> 2,0.11650300000000005,0.11650299999999994,0.11650300000000001,0.11650300000000001,0.11650300000000005,5.003707553108401e-17,9.25185853854297e-18,99.75,99.75,99.75,99.75,99.75,0.0,0.0,33.81000000000002,33.80999999999998,33.81,33.81,33.81000000000002,1.6280579355608324e-14,2.3684757858670005e-15,39.77,32.5,36.645,37.155,32.5,2.7689032124651822,2.4233333333333342
1 -> 2,0.11650300000000005,0.11650299999999994,0.11650300000000001,0.11650300000000001,0.11650300000000005,5.003707553108401e-17,9.25185853854297e-18,99.75,99.75,99.75,99.75,99.75,0.0,0.0,33.81000000000002,33.80999999999998,33.81,33.81,33.81000000000002,1.6280579355608324e-14,2.3684757858670005e-15,39.65,29.21,35.24,36.05,29.21,3.983026487484108,-3.479999999999999
1 -> 2,0.11650300000000005,0.11650299999999994,0.11650300000000001,0.11650300000000001,0.11650300000000005,5.003707553108401e-17,9.25185853854297e-18,99.75,99.75,99.75,99.75,99.75,0.0,0.0,33.81000000000002,33.80999999999998,33.81,33.81,33.81000000000002,1.6280579355608324e-14,2.3684757858670005e-15,39.65,29.21,35.24,36.05,29.21,3.983026487484108,-3.479999999999999
1 -> 2,0.11650300000000005,0.11650299999999994,0.11650300000000001,0.11650300000000001,0.11650300000000005,5.003707553108401e-17,9.25185853854297e-18,99.75,99.75,99.75,99.75,99.75,0.0,0.0,33.81000000000002,33.80999999999998,33.81,33.81,33.81000000000002,1.6280579355608324e-14,2.3684757858670005e-15,23.17,6.34,14.355,13.955,6.34,6.3075847200017865,-5.61
1 -> 2,0.11650300000000005,0.11650299999999994,0.11650300000000001,0.11650300000000001,0.11650300000000005,5.003707553108401e-17,9.25185853854297e-18,99.75,99.75,99.75,99.75,99.75,0.0,0.0,33.81000000000002,33.80999999999998,33.81,33.81,33.81000000000002,1.6280579355608324e-14,2.3684757858670005e-15,23.17,6.34,14.355,13.955,6.34,6.3075847200017865,-5.61
1 -> 2,0.11650300000000005,0.11650299999999994,0.11650300000000001,0.11650300000000001,0.11650300000000005,5.003707553108401e-17,9.25185853854297e-18,99.75,99.75,99.75,99.75,99.75,0.0,0.0,33.81000000000002,33.80999999999998,33.81,33.81,33.81000000000002,1.6280579355608324e-14,2.3684757858670005e-15,3.1,0.93,1.7125,1.4100000000000001,0.93,0.8254506345021488,-0.5466666666666667
1 -> 2,0.11650300000000005,0.11650299999999994,0.11650300000000001,0.11650300000000001,0.11650300000000005,5.003707553108401e-17,9.25185853854297e-18,99.75,99.75,99.75,99.75,99.75,0.0,0.0,33.81000000000002,33.80999999999998,33.81,33.81,33.81000000000002,1.6280579355608324e-14,2.3684757858670005e-15,3.1,0.93,1.7125,1.4100000000000001,0.93,0.8254506345021488,-0.5466666666666667
1 -> 2,0.11650300000000005,0.11650299999999994,0.11650300000000001,0.11650300000000001,0.11650300000000005,5.003707553108401e-17,9.25185853854297e-18,99.75,99.75,99.75,99.75,99.75,0.0,0.0,33.81000000000002,33.80999999999998,33.81,33.81,33.81000000000002,1.6280579355608324e-14,2.3684757858670005e-15,4.77,2.56,3.9275,4.1899999999999995,2.56,0.8785606125931208,0.7366666666666665
1 -> 2,0.11650300000000005,0.11650299999999994,0.11650300000000001,0.11650300000000001,0.11650300000000005,5.003707553108401e-17,9.25185853854297e-18,99.75,99.75,99.75,99.75,99.75,0.0,0.0,33.81000000000002,33.80999999999998,33.81,33.81,33.81000000000002,1.6280579355608324e-14,2.3684757858670005e-15,4.77,2.56,3.9275,4.1899999999999995,2.56,0.8785606125931208,0.7366666666666665
1 -> 2,0.11266200000000005,0.11266199999999993,0.11266200000000001,0.11266200000000004,0.11266200000000005,5.099024833164444e-17,2.7755575615628914e-17,99.75,99.75,99.75,99.75,99.75,0.0,0.0,33.81000000000002,33.80999999999998,33.81,33.81,33.81000000000002,1.6280579355608324e-14,2.3684757858670005e-15,4.02,-2.13,1.1325,1.32,-2.13,2.314523439069045,-2.05
1 -> 2,0.11266200000000005,0.11266199999999993,0.11266200000000001,0.11266200000000004,0.11266200000000005,5.099024833164444e-17,2.7755575615628914e-17,99.75,99.75,99.75,99.75,99.75,0.0,0.0,33.81000000000002,33.80999999999998,33.81,33.81,33.81000000000002,1.6280579355608324e-14,2.3684757858670005e-15,4.02,-2.13,1.1325,1.32,-2.13,2.314523439069045,-2.05
1 -> 2,0.11266200000000005,0.11266199999999993,0.11266200000000001,0.11266200000000004,0.11266200000000005,5.099024833164444e-17,2.7755575615628914e-17,99.75,99.75,99.75,99.75,99.75,0.0,0.0,33.81000000000002,33.80999999999998,33.81,33.81,33.81000000000002,1.6280579355608324e-14,2.3684757858670005e-15,-4.35,-9.57,-7.03,-7.1,-9.57,1.9400386594086214,-1.7400000000000002
1 -> 2,0.11266200000000005,0.11266199999999993,0.11266200000000001,0.11266200000000004,0.11266200000000005,5.099024833164444e-17,2.7755575615628914e-17,99.75,99.75,99.75,99.75,99.75,0.0,0.0,33.81000000000002,33.80999999999998,33.81,33.81,33.81000000000002,1.6280579355608324e-14,2.3684757858670005e-15,-4.35,-9.57,-7.03,-7.1,-9.57,1.9400386594086214,-1.7400000000000002
1 -> 2,0.11266200000000005,0.11266199999999993,0.11266200000000001,0.11266200000000004,0.11266200000000005,5.099024833164444e-17,2.7755575615628914e-17,99.75,99.75,99.75,99.75,99.75,0.0,0.0,33.81000000000002,33.80999999999998,33.81,33.81,33.81000000000002,1.6280579355608324e-14,2.3684757858670005e-15,-11.35,-17.22,-14.3125,-14.34,-17.22,2.197286679065797,-1.9566666666666663
1 -> 2,0.11266200000000005,0.11266199999999993,0.11266200000000001,0.11266200000000004,0.11266200000000005,5.099024833164444e-17,2.7755575615628914e-17,99.75,99.75,99.75,99.75,99.75,0.0,0.0,33.81000000000002,33.80999999999998,33.81,33.81,33.81000000000002,1.6280579355608324e-14,2.3684757858670005e-15,-11.35,-17.22,-14.3125,-14.34,-17.22,2.197286679065797,-1.9566666666666663
1 -> 2,0.11266200000000005,0.11266199999999993,0.11266200000000001,0.11266200000000004,0.11266200000000005,5.099024833164444e-17,2.7755575615628914e-17,99.75,99.75,99.75,99.75,99.75,0.0,0.0,33.81000000000002,33.80999999999998,33.81,33.81,33.81000000000002,1.6280579355608324e-14,2.3684757858670005e-15,-17.33,-19.14,-18.4425,-18.65,-19.14,0.6751064730840619,0.413333333333334
1 -> 2,0.11266200000000005,0.11266199999999993,0.11266200000000001,0.11266200000000004,0.11266200000000005,5.099024833164444e-17,2.7755575615628914e-17,99.75,99.75,99.75,99.75,99.75,0.0,0.0,33.81000000000002,33.80999999999998,33.81,33.81,33.81000000000002,1.6280579355608324e-14,2.3684757858670005e-15,-17.33,-19.14,-18.4425,-18.65,-19.14,0.6751064730840619,0.413333333333334
1 -> 2,0.12034400000000006,0.12034399999999992,0.120344,0.120344,0.12034400000000006,6.088854689467823e-17,-1.3877787807814457e-17,96.8,96.8,96.8,96.8,96.8,0.0,0.0,33.81000000000002,33.80999999999998,33.81,33.81,33.81000000000002,1.6280579355608324e-14,2.3684757858670005e-15,-6.43,-15.08,-10.7875,-10.82,-15.08,3.232501933487434,2.8833333333333333
1 -> 2,0.12034400000000006,0.12034399999999992,0.120344,0.120344,0.12034400000000006,6.088854689467823e-17,-1.3877787807814457e-17,96.8,96.8,96.8,96.8,96.8,0.0,0.0,33.81000000000002,33.80999999999998,33.81,33.81,33.81000000000002,1.6280579355608324e-14,2.3684757858670005e-15,-6.43,-15.08,-10.7875,-10.82,-15.08,3.232501933487434,2.8833333333333333
1 -> 2,0.12034400000000006,0.12034399999999992,0.120344,0.120344,0.12034400000000006,6.088854689467823e-17,-1.3877787807814457e-17,96.8,96.8,96.8,96.8,96.8,0.0,0.0,33.81000000000002,33.80999999999998,33.81,33.81,33.81000000000002,1.6280579355608324e-14,2.3684757858670005e-15,3.02,-3.72,-0.22499999999999998,-0.09999999999999998,-3.72,2.5164508737505686,2.2466666666666666
1 -> 2,0.12034400000000006,0.12034399999999992,0.120344,0.120344,0.12034400000000006,6.088854689467823e-17,-1.3877787807814457e-17,96.8,96.8,96.8,96.8,96.8,0.0,0.0,33.81000000000002,33.80999999999998,33.81,33.81,33.81000000000002,1.6280579355608324e-14,2.3684757858670005e-15,3.02,-3.72,-0.22499999999999998,-0.09999999999999998,-3.72,2.5164508737505686,2.2466666666666666
1 -> 2,0.12034400000000006,0.12034399999999992,0.120344,0.120344,0.12034400000000006,6.088854689467823e-17,-1.3877787807814457e-17,96.8,96.8,96.8,96.8,96.8,0.0,0.0,33.81000000000002,33.80999999999998,33.81,33.81,33.81000000000002,1.6280579355608324e-14,2.3684757858670005e-15,6.91,4.71,6.0975,6.385,4.71,0.8727936468604707,0.7333333333333334
1 -> 2,0.12034400000000006,0.12034399999999992,0.120344,0.120344,0.12034400000000006,6.088854689467823e-17,-1.3877787807814457e-17,96.8,96.8,96.8,96.8,96.8,0.0,0.0,33.81000000000002,33.80999999999998,33.81,33.81,33.81000000000002,1.6280579355608324e-14,2.3684757858670005e-15,6.91,4.71,6.0975,6.385,4.71,0.8727936468604707,0.7333333333333334
1 -> 2,0.12034400000000006,0.12034399999999992,0.120344,0.120344,0.12034400000000006,6.088854689467823e-17,-1.3877787807814457e-17,96.8,96.8,96.8,96.8,96.8,0.0,0.0,33.81000000000002,33.80999999999998,33.81,33.81,33.81000000000002,1.6280579355608324e-14,2.3684757858670005e-15,6.51,4.15,5.317500000000001,5.305,4.15,0.8893642392181056,-0.7866666666666665
1 -> 2,0.12034400000000006,0.12034399999999992,0.120344,0.120344,0.12034400000000006,6.088854689467823e-17,-1.3877787807814457e-17,96.8,96.8,96.8,96.8,96.8,0.0,0.0,33.81000000000002,33.80999999999998,33.81,33.81,33.81000000000002,1.6280579355608324e-14,2.3684757858670005e-15,6.51,4.15,5.317500000000001,5.305,4.15,0.8893642392181056,-0.7866666666666665
1 -> 2,0.11522300000000006,0.11522299999999996,0.11522300000000003,0.11522300000000003,0.11522300000000006,4.220764384040162e-17,1.3877787807814457e-17,96.8,96.8,96.8,96.8,96.8,0.0,0.0,33.81000000000002,33.80999999999998,33.81,33.81,33.81000000000002,1.6280579355608324e-14,2.3684757858670005e-15,4.26,3.73,3.93,3.865,3.73,0.21177818584547367,0.16666666666666666
1 -> 2,0.11522300000000006,0.11522299999999996,0.11522300000000003,0.11522300000000003,0.11522300000000006,4.220764384040162e-17,1.3877787807814457e-17,96.8,96.8,96.8,96.8,96.8,0.0,0.0,33.81000000000002,33.80999999999998,33.81,33.81,33.81000000000002,1.6280579355608324e-14,2.3684757858670005e-15,4.26,3.73,3.93,3.865,3.73,0.21177818584547367,0.16666666666666666
1 -> 2,0.11522300000000006,0.11522299999999996,0.11522300000000003,0.11522300000000003,0.11522300000000006,4.220764384040162e-17,1.3877787807814457e-17,96.8,96.8,96.8,96.8,96.8,0.0,0.0,33.81000000000002,33.80999999999998,33.81,33.81,33.81000000000002,1.6280579355608324e-14,2.3684757858670005e-15,4.28,2.11,3.4,3.605,2.11,0.8328565302619655,-0.7233333333333335
1 -> 2,0.11522300000000006,0.11522299999999996,0.11522300000000003,0.11522300000000003,0.11522300000000006,4.220764384040162e-17,1.3877787807814457e-17,96.8,96.8,96.8,96.8,96.8,0.0,0.0,33.81000000000002,33.80999999999998,33.81,33.81,33.81000000000002,1.6280579355608324e-14,2.3684757858670005e-15,4.28,2.11,3.4,3.605,2.11,0.8328565302619655,-0.7233333333333335
1 -> 2,0.11522300000000006,0.11522299999999996,0.11522300000000003,0.11522300000000003,0.11522300000000006,4.220764384040162e-17,1.3877787807814457e-17,96.8,96.8,96.8,96.8,96.8,0.0,0.0,33.81000000000002,33.80999999999998,33.81,33.81,33.81000000000002,1.6280579355608324e-14,2.3684757858670005e-15,0.5,-7.61,-3.2925,-3.03,-7.61,3.035657877627188,-2.703333333333333
1 -> 2,0.11522300000000006,0.11522299999999996,0.11522300000000003,0.11522300000000003,0.11522300000000006,4.220764384040162e-17,1.3877787807814457e-17,96.8,96.8,96.8,96.8,96.8,0.0,0.0,33.81000000000002,33.80999999999998,33.81,33.81,33.81000000000002,1.6280579355608324e-14,2.3684757858670005e-15,0.5,-7.61,-3.2925,-3.03,-7.61,3.035657877627188,-2.703333333333333
1 -> 2,0.11522300000000006,0.11522299999999996,0.11522300000000003,0.11522300000000003,0.11522300000000006,4.220764384040162e-17,1.3877787807814457e-17,96.8,96.8,96.8,96.8,96.8,0.0,0.0,33.81000000000002,33.80999999999998,33.81,33.81,33.81000000000002,1.6280579355608324e-14,2.3684757858670005e-15,-11.3,-22.27,-17.05,-17.314999999999998,-22.27,4.118937969914089,-3.6566666666666663
1 -> 2,0.11522300000000006,0.11522299999999996,0.11522300000000003,0.11522300000000003,0.11522300000000006,4.220764384040162e-17,1.3877787807814457e-17,96.8,96.8,96.8,96.8,96.8,0.0,0.0,33.81000000000002,33.80999999999998,33.81,33.81,33.81000000000002,1.6280579355608324e-14,2.3684757858670005e-15,-11.3,-22.27,-17.05,-17.314999999999998,-22.27,4.118937969914089,-3.6566666666666663
1 -> 2,0.11650300000000005,0.11650299999999994,0.11650300000000001,0.11650300000000001,0.11650300000000005,5.003707553108401e-17,9.25185853854297e-18,96.8,96.8,96.8,96.8,96.8,0.0,0.0,33.81000000000002,33.80999999999998,33.81,33.81,33.81000000000002,1.6280579355608324e-14,2.3684757858670005e-15,-24.21,-25.57,-25.12,-25.35,-25.57,0.5421254467371914,-0.42666666666666586
1 -> 2,0.11650300000000005,0.11650299999999994,0.11650300000000001,0.11650300000000001,0.11650300000000005,5.003707553108401e-17,9.25185853854297e-18,96.8,96.8,96.8,96.8,96.8,0.0,0.0,33.81000000000002,33.80999999999998,33.81,33.81,33.81000000000002,1.6280579355608324e-14,2.3684757858670005e-15,-24.21,-25.57,-25.12,-25.35,-25.57,0.5421254467371914,-0.42666666666666586
1 -> 2,0.11650300000000005,0.11650299999999994,0.11650300000000001,0.11650300000000001,0.11650300000000005,5.003707553108401e-17,9.25185853854297e-18,96.8,96.8,96.8,96.8,96.8,0.0,0.0,33.81000000000002,33.80999999999998,33.81,33.81,33.81000000000002,1.6280579355608324e-14,2.3684757858670005e-15,-20.49,-25.04,-23.197499999999998,-23.630000000000003,-25.04,1.715537452228893,1.5166666666666668
1 -> 2,0.11650300000000005,0.11650299999999994,0.11650300000000001,0.11650300000000001,0.11650300000000005,5.003707553108401e-17,9.25185853854297e-18,96.8,96.8,96.8,96.8,96.8,0.0,0.0,33.81000000000002,33.80999999999998,33.81,33.81,33.81000000000002,1.6280579355608324e-14,2.3684757858670005e-15,-20.49,-25.04,-23.197499999999998,-23.630000000000003,-25.04,1.715537452228893,1.5166666666666668
1 -> 2,0.11650300000000005,0.11650299999999994,0.11650300000000001,0.11650300000000001,0.11650300000000005,5.003707553108401e-17,9.25185853854297e-18,96.8,96.8,96.8,96.8,96.8,0.0,0.0,33.81000000000002,33.80999999999998,33.81,33.81,33.81000000000002,1.6280579355608324e-14,2.3684757858670005e-15,7.98,-15.73,-4.245,-4.615,-15.73,8.890411970207005,7.903333333333333
1 -> 2,0.11650300000000005,0.11650299999999994,0.11650300000000001,0.11650300000000001,0.11650300000000005,5.003707553108401e-17,9.25185853854297e-18,96.8,96.8,96.8,96.8,96.8,0.0,0.0,33.81000000000002,33.80999999999998,33.81,33.81,33.81000000000002,1.6280579355608324e-14,2.3684757858670005e-15,7.98,-15.73,-4.245,-4.615,-15.73,8.890411970207005,7.903333333333333
1 -> 2,0.11650300000000005,0.11650299999999994,0.11650300000000001,0.11650300000000001,0.11650300000000005,5.003707553108401e-17,9.25185853854297e-18,96.8,96.8,96.8,96.8,96.8,0.0,0.0,33.81000000000002,33.80999999999998,33.81,33.81,33.81000000000002,1.6280579355608324e-14,2.3684757858670005e-15,33.07,15.68,24.79,25.205,15.68,6.484539305147282,5.796666666666667
1 -> 2,0.11650300000000005,0.11650299999999994,0.11650300000000001,0.11650300000000001,0.11650300000000005,5.003707553108401e-17,9.25185853854297e-18,96.8,96.8,96.8,96.8,96.8,0.0,0.0,33.81000000000002,33.80999999999998,33.81,33.81,33.81000000000002,1.6280579355608324e-14,2.3684757858670005e-15,33.07,15.68,24.79,25.205,15.68,6.484539305147282,5.796666666666667
1 -> 2,0.11906300000000006,0.11906299999999996,0.11906300000000002,0.11906300000000003,0.11906300000000006,4.1051049941978724e-17,-1.3877787807814457e-17,96.8,96.8,96.8,96.8,96.8,0.0,0.0,33.81000000000002,33.80999999999998,33.81,33.81,33.81000000000002,1.6280579355608324e-14,2.3684757858670005e-15,75.46,39.43,56.230000000000004,55.015,39.43,13.536851554183489,12.009999999999998
1 -> 2,0.11906300000000006,0.11906299999999996,0.11906300000000002,0.11906300000000003,0.11906300000000006,4.1051049941978724e-17,-1.3877787807814457e-17,96.8,96.8,96.8,96.8,96.8,0.0,0.0,33.81000000000002,33.80999999999998,33.81,33.81,33.81000000000002,1.6280579355608324e-14,2.3684757858670005e-15,75.46,39.43,56.230000000000004,55.015,39.43,13.536851554183489,12.009999999999998
1 -> 2,0.11906300000000006,0.11906299999999996,0.11906300000000002,0.11906300000000003,0.11906300000000006,4.1051049941978724e-17,-1.3877787807814457e-17,96.8,96.8,96.8,96.8,96.8,0.0,0.0,33.81000000000002,33.80999999999998,33.81,33.81,33.81000000000002,1.6280579355608324e-14,2.3684757858670005e-15,116.71,89.26,104.285,105.58500000000001,89.26,10.30785258916715,9.149999999999997
1 -> 2,0.11906300000000006,0.11906299999999996,0.11906300000000002,0.11906300000000003,0.11906300000000006,4.1051049941978724e-17,-1.3877787807814457e-17,96.8,96.8,96.8,96.8,96.8,0.0,0.0,33.81000000000002,33.80999999999998,33.81,33.81,33.81000000000002,1.6280579355608324e-14,2.3684757858670005e-15,116.71,89.26,104.285,105.58500000000001,89.26,10.30785258916715,9.149999999999997
1 -> 2,0.11906300000000006,0.11906299999999996,0.11906300000000002,0.11906300000000003,0.11906300000000006,4.1051049941978724e-17,-1.3877787807814457e-17,96.8,96.8,96.8,96.8,96.8,0.0,0.0,33.81000000000002,33.80999999999998,33.81,33.81,33.81000000000002,1.6280579355608324e-14,2.3684757858670005e-15,148.73,121.26,133.1125,131.23,121.26,10.383386670542512,9.156666666666661
1 -> 2,0.11906300000000006,0.11906299999999996,0.11906300000000002,0.11906300000000003,0.11906300000000006,4.1051049941978724e-17,-1.3877787807814457e-17,96.8,96.8,96.8,96.8,96.8,0.0,0.0,33.81000000000002,33.80999999999998,33.81,33.81,33.81000000000002,1.6280579355608324e-14,2.3684757858670005e-15,148.73,121.26,133.1125,131.23,121.26,10.383386670542512,9.156666666666661
1 -> 2,0.11906300000000006,0.11906299999999996,0.11906300000000002,0.11906300000000003,0.11906300000000006,4.1051049941978724e-17,-1.3877787807814457e-17,96.8,96.8,96.8,96.8,96.8,0.0,0.0,33.81000000000002,33.80999999999998,33.81,33.81,33.81000000000002,1.6280579355608324e-14,2.3684757858670005e-15,211.63,164.6,188.625,189.135,164.6,17.551675845912836,15.676666666666668
1 -> 2,0.11906300000000006,0.11906299999999996,0.11906300000000002,0.11906300000000003,0.11906300000000006,4.1051049941978724e-17,-1.3877787807814457e-17,96.8,96.8,96.8,96.8,96.8,0.0,0.0,33.81000000000002,33.80999999999998,33.81,33.81,33.81000000000002,1.6280579355608324e-14,2.3684757858670005e-15,211.63,164.6,188.625,189.135,164.6,17.551675845912836,15.676666666666668
1 -> 2,0.11650300000000005,0.11650299999999994,0.11650300000000001,0.11650300000000001,0.11650300000000005,5.003707553108401e-17,9.25185853854297e-18,89.67,89.67,89.67,89.67,89.67,0.0,0.0,33.81000000000002,33.80999999999998,33.81,33.81,33.81000000000002,1.6280579355608324e-14,2.3684757858670005e-15,225.1,147.38,198.1025,209.965,147.38,31.331122207000504,-25.906666666666666
1 -> 2,0.11650300000000005,0.11650299999999994,0.11650300000000001,0.11650300000000001,0.11650300000000005,5.003707553108401e-17,9.25185853854297e-18,89.67,89.67,89.67,89.67,89.67,0.0,0.0,33.81000000000002,33.80999999999998,33.81,33.81,33.81000000000002,1.6280579355608324e-14,2.3684757858670005e-15,225.1,147.38,198.1025,209.965,147.38,31.331122207000504,-25.906666666666666
1 -> 2,0.11650300000000005,0.11650299999999994,0.11650300000000001,0.11650300000000001,0.11650300000000005,5.003707553108401e-17,9.25185853854297e-18,89.67,89.67,89.67,89.67,89.67,0.0,0.0,33.81000000000002,33.80999999999998,33.81,33.81,33.81000000000002,1.6280579355608324e-14,2.3684757858670005e-15,85.71,-64.6,5.199999999999999,-0.15499999999999936,-64.6,56.35626273982333,-50.10333333333333
1 -> 2,0.11650300000000005,0.11650299999999994,0.11650300000000001,0.11650300000000001,0.11650300000000005,5.003707553108401e-17,9.25185853854297e-18,89.67,89.67,89.67,89.67,89.67,0.0,0.0,33.81000000000002,33.80999999999998,33.81,33.81,33.81000000000002,1.6280579355608324e-14,2.3684757858670005e-15,85.71,-64.6,5.199999999999999,-0.15499999999999936,-64.6,56.35626273982333,-50.10333333333333
1 -> 2,0.11650300000000005,0.11650299999999994,0.11650300000000001,0.11650300000000001,0.11650300000000005,5.003707553108401e-17,9.25185853854297e-18,89.67,89.67,89.67,89.67,89.67,0.0,0.0,33.81000000000002,33.80999999999998,33.81,33.81,33.81000000000002,1.6280579355608324e-14,2.3684757858670005e-15,-92.99,-134.37,-116.87,-120.06,-134.37,15.768455853380194,-13.793333333333337
1 -> 2,0.11650300000000005,0.11650299999999994,0.11650300000000001,0.11650300000000001,0.11650300000000005,5.003707553108401e-17,9.25185853854297e-18,89.67,89.67,89.67,89.67,89.67,0.0,0.0,33.81000000000002,33.80999999999998,33.81,33.81,33.81000000000002,1.6280579355608324e-14,2.3684757858670005e-15,-92.99,-134.37,-116.87,-120.06,-134.37,15.768455853380194,-13.793333333333337
1 -> 2,0.11650300000000005,0.11650299999999994,0.11650300000000001,0.11650300000000001,0.11650300000000005,5.003707553108401e-17,9.25185853854297e-18,89.67,89.67,89.67,89.67,89.67,0.0,0.0,33.81000000000002,33.80999999999998,33.81,33.81,33.81000000000002,1.6280579355608324e-14,2.3684757858670005e-15,-109.56,-134.61,-123.09,-124.095,-134.61,9.499255233964401,8.350000000000003
1 -> 2,0.11650300000000005,0.11650299999999994,0.11650300000000001,0.11650300000000001,0.11650300000000005,5.003707553108401e-17,9.25185853854297e-18,89.67,89.67,89.67,89.67,89.67,0.0,0.0,33.81000000000002,33.80999999999998,33.81,33.81,33.81000000000002,1.6280579355608324e-14,2.3684757858670005e-15,-109.56,-134.61,-123.09,-124.095,-134.61,9.499255233964401,8.350000000000003
1 -> 2,0.12546500000000005,0.12546499999999997,0.125465,0.12546500000000002,0.12546500000000005,4.163336342344337e-17,9.25185853854297e-18,89.67,89.67,89.67,89.67,89.67,0.0,0.0,33.81000000000002,33.80999999999998,33.81,33.81,33.81000000000002,1.6280579355608324e-14,2.3684757858670005e-15,-92.6,-101.47,-95.86500000000001,-94.695,-101.47,3.489487784761541,2.9566666666666683
1 -> 2,0.12546500000000005,0.12546499999999997,0.125465,0.12546500000000002,0.12546500000000005,4.163336342344337e-17,9.25185853854297e-18,89.67,89.67,89.67,89.67,89.67,0.0,0.0,33.81000000000002,33.80999999999998,33.81,33.81,33.81000000000002,1.6280579355608324e-14,2.3684757858670005e-15,-92.6,-101.47,-95.86500000000001,-94.695,-101.47,3.489487784761541,2.9566666666666683
1 -> 2,0.12546500000000005,0.12546499999999997,0.125465,0.12546500000000002,0.12546500000000005,4.163336342344337e-17,9.25185853854297e-18,89.67,89.67,89.67,89.67,89.67,0.0,0.0,33.81000000000002,33.80999999999998,33.81,33.81,33.81000000000002,1.6280579355608324e-14,2.3684757858670005e-15,-77.8,-91.71,-85.57000000000001,-86.385,-91.71,5.292716693721665,4.636666666666666
1 -> 2,0.12546500000000005,0.12546499999999997,0.125465,0.12546500000000002,0.12546500000000005,4.163336342344337e-17,9.25185853854297e-18,89.67,89.67,89.67,89.67,89.67,0.0,0.0,33.81000000000002,33.80999999999998,33.81,33.81,33.81000000000002,1.6280579355608324e-14,2.3684757858670005e-15,-77.8,-91.71,-85.57000000000001,-86.385,-91.71,5.292716693721665,4.636666666666666
1 -> 2,0.12546500000000005,0.12546499999999997,0.125465,0.12546500000000002,0.12546500000000005,4.163336342344337e-17,9.25185853854297e-18,89.67,89.67,89.67,89.67,89.67,0.0,0.0,33.81000000000002,33.80999999999998,33.81,33.81,33.81000000000002,1.6280579355608324e-14,2.3684757858670005e-15,-67.17,-72.36,-68.925,-68.08500000000001,-72.36,2.068967133620058,1.6400000000000006
1 -> 2,0.12546500000000005,0.12546499999999997,0.125465,0.12546500000000002,0.12546500000000005,4.163336342344337e-17,9.25185853854297e-18,89.67,89.67,89.67,89.67,89.67,0.0,0.0,33.81000000000002,33.80999999999998,33.81,33.81,33.81000000000002,1.6280579355608324e-14,2.3684757858670005e-15,-67.17,-72.36,-68.925,-68.08500000000001,-72.36,2.068967133620058,1.6400000000000006
1 -> 2,0.12546500000000005,0.12546499999999997,0.125465,0.12546500000000002,0.12546500000000005,4.163336342344337e-17,9.25185853854297e-18,89.67,89.67,89.67,89.67,89.67,0.0,0.0,33.81000000000002,33.80999999999998,33.81,33.81,33.81000000000002,1.6280579355608324e-14,2.3684757858670005e-15,-66.02,-70.39,-68.785,-69.365,-70.39,1.6586515607565089,1.0366666666666664
1 -> 2,0.12546500000000005,0.12546499999999997,0.125465,0.12546500000000002,0.12546500000000005,4.163336342344337e-17,9.25185853854297e-18,89.67,89.67,89.67,89.67,89.67,0.0,0.0,33.81000000000002,33.80999999999998,33.81,33.81,33.81000000000002,1.6280579355608324e-14,2.3684757858670005e-15,-66.02,-70.39,-68.785,-69.365,-70.39,1.6586515607565089,1.0366666666666664
1 -> 2,0.12290400000000005,0.12290399999999992,0.12290400000000001,0.12290400000000001,0.12290400000000005,5.846815929450271e-17,2.312964634635743e-17,89.67,89.67,89.67,89.67,89.67,0.0,0.0,33.81000000000002,33.80999999999998,33.81,33.81,33.81000000000002,1.6280579355608324e-14,2.3684757858670005e-15,-39.48,-60.1,-49.589999999999996,-49.39,-60.1,7.717544946419167,6.873333333333335
1 -> 2,0.12290400000000005,0.12290399999999992,0.12290400000000001,0.12290400000000001,0.12290400000000005,5.846815929450271e-17,2.312964634635743e-17,89.67,89.67,89.67,89.67,89.67,0.0,0.0,33.81000000000002,33.80999999999998,33.81,33.81,33.81000000000002,1.6280579355608324e-14,2.3684757858670005e-15,-39.48,-60.1,-49.589999999999996,-49.39,-60.1,7.717544946419167,6.873333333333335
1 -> 2,0.12290400000000005,0.12290399999999992,0.12290400000000001,0.12290400000000001,0.12290400000000005,5.846815929450271e-17,2.312964634635743e-17,89.67,89.67,89.67,89.67,89.67,0.0,0.0,33.81000000000002,33.80999999999998,33.81,33.81,33.81000000000002,1.6280579355608324e-14,2.3684757858670005e-15,-23.65,-34.35,-28.9125,-28.825,-34.35,3.9629558097460547,3.5666666666666678
1 -> 2,0.12290400000000005,0.12290399999999992,0.12290400000000001,0.12290400000000001,0.12290400000000005,5.846815929450271e-17,2.312964634635743e-17,89.67,89.67,89.67,89.67,89.67,0.0,0.0,33.81000000000002,33.80999999999998,33.81,33.81,33.81000000000002,1.6280579355608324e-14,2.3684757858670005e-15,-23.65,-34.35,-28.9125,-28.825,-34.35,3.9629558097460547,3.5666666666666678
1 -> 2,0.12290400000000005,0.12290399999999992,0.12290400000000001,0.12290400000000001,0.12290400000000005,5.846815929450271e-17,2.312964634635743e-17,89.67,89.67,89.67,89.67,89.67,0.0,0.0,33.81000000000002,33.80999999999998,33.81,33.81,33.81000000000002,1.6280579355608324e-14,2.3684757858670005e-15,-9.18,-19.7,-14.1175,-13.795,-19.7,3.9500783220083115,3.5066666666666664
1 -> 2,0.12290400000000005,0.12290399999999992,0.12290400000000001,0.12290400000000001,0.12290400000000005,5.846815929450271e-17,2.312964634635743e-17,89.67,89.67,89.67,89.67,89.67,0.0,0.0,33.81000000000002,33.80999999999998,33.81,33.81,33.81000000000002,1.6280579355608324e-14,2.3684757858670005e-15,-9.18,-19.7,-14.1175,-13.795,-19.7,3.9500783220083115,3.5066666666666664
1 -> 2,0.12290400000000005,0.12290399999999992,0.12290400000000001,0.12290400000000001,0.12290400000000005,5.846815929450271e-17,2.312964634635743e-17,89.67,89.67,89.67,89.67,89.67,0.0,0.0,33.81000000000002,33.80999999999998,33.81,33.81,33.81000000000002,1.6280579355608324e-14,2.3684757858670005e-15,-3.91,-7.29,-5.5874999999999995,-5.574999999999999,-7.29,1.2433095953944857,1.1266666666666667
1 -> 2,0.12290400000000005,0.12290399999999992,0.12290400000000001,0.12290400000000001,0.12290400000000005,5.846815929450271e-17,2.312964634635743e-17,89.67,89.67,89.67,89.67,89.67,0.0,0.0,33.81000000000002,33.80999999999998,33.81,33.81,33.81000000000002,1.6280579355608324e-14,2.3684757858670005e-15,-3.91,-7.29,-5.5874999999999995,-5.574999999999999,-7.29,1.2433095953944857,1.1266666666666667
1 -> 2,0.11650300000000005,0.11650299999999994,0.11650300000000001,0.11650300000000001,0.11650300000000005,5.003707553108401e-17,9.25185853854297e-18,89.67,89.67,89.67,89.67,89.67,0.0,0.0,33.81000000000002,33.80999999999998,33.81,33.81,33.81000000000002,1.6280579355608324e-14,2.3684757858670005e-15,3.0,-2.27,0.49500000000000005,0.625,-2.27,1.9836897438863772,1.7566666666666666
1 -> 2,0.11650300000000005,0.11650299999999994,0.11650300000000001,0.11650300000000001,0.11650300000000005,5.003707553108401e-17,9.25185853854297e-18,89.67,89.67,89.67,89.67,89.67,0.0,0.0,33.81000000000002,33.80999999999998,33.81,33.81,33.81000000000002,1.6280579355608324e-14,2.3684757858670005e-15,3.0,-2.27,0.49500000000000005,0.625,-2.27,1.9836897438863772,1.7566666666666666
1 -> 2,0.11650300000000005,0.11650299999999994,0.11650300000000001,0.11650300000000001,0.11650300000000005,5.003707553108401e-17,9.25185853854297e-18,89.67,89.67,89.67,89.67,89.67,0.0,0.0,33.81000000000002,33.80999999999998,33.81,33.81,33.81000000000002,1.6280579355608324e-14,2.3684757858670005e-15,4.42,3.81,4.1475,4.18,3.81,0.22219079638904934,0.20333333333333328
1 -> 2,0.11650300000000005,0.11650299999999994,0.11650300000000001,0.11650300000000001,0.11650300000000005,5.003707553108401e-17,9.25185853854297e-18,89.67,89.67,89.67,89.67,89.67,0.0,0.0,33.81000000000002,33.80999999999998,33.81,33.81,33.81000000000002,1.6280579355608324e-14,2.3684757858670005e-15,4.42,3.81,4.1475,4.18,3.81,0.22219079638904934,0.20333333333333328
1 -> 2,0.11650300000000005,0.11650299999999994,0.11650300000000001,0.11650300000000001,0.11650300000000005,5.003707553108401e-17,9.25185853854297e-18,89.67,89.67,89.67,89.67,89.67,0.0,0.0,33.81000000000002,33.80999999999998,33.81,33.81,33.81000000000002,1.6280579355608324e-14,2.3684757858670005e-15,6.26,4.78,5.525,5.529999999999999,4.78,0.5546395225729951,0.4933333333333332
1 -> 2,0.11650300000000005,0.11650299999999994,0.11650300000000001,0.11650300000000001,0.11650300000000005,5.003707553108401e-17,9.25185853854297e-18,89.67,89.67,89.67,89.67,89.67,0.0,0.0,33.81000000000002,33.80999999999998,33.81,33.81,33.81000000000002,1.6280579355608324e-14,2.3684757858670005e-15,6.26,4.78,5.525,5.529999999999999,4.78,0.5546395225729951,0.4933333333333332
1 -> 2,0.11650300000000005,0.11650299999999994,0.11650300000000001,0.11650300000000001,0.11650300000000005,5.003707553108401e-17,9.25185853854297e-18,89.67,89.67,89.67,89.67,89.67,0.0,0.0,33.81000000000002,33.80999999999998,33.81,33.81,33.81000000000002,1.6280579355608324e-14,2.3684757858670005e-15,7.7,6.7,7.255,7.3100000000000005,6.7,0.382197592875727,0.3333333333333333
1 -> 2,0.11650300000000005,0.11650299999999994,0.11650300000000001,0.11650300000000001,0.11650300000000005,5.003707553108401e-17,9.25185853854297e-18,89.67,89.67,89.67,89.67,89.67,0.0,0.0,33.81000000000002,33.80999999999998,33.81,33.81,33.81000000000002,1.6280579355608324e-14,2.3684757858670005e-15,7.7,6.7,7.255,7.3100000000000005,6.7,0.382197592875727,0.3333333333333333
1 -> 2,0.12802500000000006,0.12802499999999994,0.128025,0.12802500000000003,0.12802500000000006,4.8074067159589095e-17,1.850371707708594e-17,87.0,87.0,87.0,87.0,87.0,0.0,0.0,33.81000000000002,33.80999999999998,33.81,33.81,33.81000000000002,1.6280579355608324e-14,2.3684757858670005e-15,7.52,3.74,5.8774999999999995,6.125,3.74,1.4359034612396473,-1.2599999999999998
1 -> 2,0.12802500000000006,0.12802499999999994,0.128025,0.12802500000000003,0.12802500000000006,4.8074067159589095e-17,1.850371707708594e-17,87.0,87.0,87.0,87.0,87.0,0.0,0.0,33.81000000000002,33.80999999999998,33.81,33.81,33.81000000000002,1.6280579355608324e-14,2.3684757858670005e-15,7.52,3.74,5.8774999999999995,6.125,3.74,1.4359034612396473,-1.2599999999999998
1 -> 2,0.12802500000000006,0.12802499999999994,0.128025,0.12802500000000003,0.12802500000000006,4.8074067159589095e-17,1.850371707708594e-17,87.0,87.0,87.0,87.0,87.0,0.0,0.0,33.81000000000002,33.80999999999998,33.81,33.81,33.81000000000002,1.6280579355608324e-14,2.3684757858670005e-15,1.86,-2.48,-0.46499999999999997,-0.62,-2.48,1.6263225387357823,-1.4466666666666665
1 -> 2,0.12802500000000006,0.12802499999999994,0.128025,0.12802500000000003,0.12802500000000006,4.8074067159589095e-17,1.850371707708594e-17,87.0,87.0,87.0,87.0,87.0,0.0,0.0,33.81000000000002,33.80999999999998,33.81,33.81,33.81000000000002,1.6280579355608324e-14,2.3684757858670005e-15,1.86,-2.48,-0.46499999999999997,-0.62,-2.48,1.6263225387357823,-1.4466666666666665
1 -> 2,0.12802500000000006,0.12802499999999994,0.128025,0.12802500000000003,0.12802500000000006,4.8074067159589095e-17,1.850371707708594e-17,87.0,87.0,87.0,87.0,87.0,0.0,0.0,33.81000000000002,33.80999999999998,33.81,33.81,33.81000000000002,1.6280579355608324e-14,2.3684757858670005e-15,-3.34,-4.64,-4.1,-4.21,-4.64,0.4975439679063549,-0.4333333333333333
1 -> 2,0.12802500000000006,0.12802499999999994,0.128025,0.12802500000000003,0.12802500000000006,4.8074067159589095e-17,1.850371707708594e-17,87.0,87.0,87.0,87.0,87.0,0.0,0.0,33.81000000000002,33.80999999999998,33.81,33.81,33.81000000000002,1.6280579355608324e-14,2.3684757858670005e-15,-3.34,-4.64,-4.1,-4.21,-4.64,0.4975439679063549,-0.4333333333333333
1 -> 2,0.12802500000000006,0.12802499999999994,0.128025,0.12802500000000003,0.12802500000000006,4.8074067159589095e-17,1.850371707708594e-17,87.0,87.0,87.0,87.0,87.0,0.0,0.0,33.81000000000002,33.80999999999998,33.81,33.81,33.81000000000002,1.6280579355608324e-14,2.3684757858670005e-15,-4.52,-4.9,-4.645,-4.58,-4.52,0.15516120649182932,-0.08666666666666689
1 -> 2,0.12802500000000006,0.12802499999999994,0.128025,0.12802500000000003,0.12802500000000006,4.8074067159589095e-17,1.850371707708594e-17,87.0,87.0,87.0,87.0,87.0,0.0,0.0,33.81000000000002,33.80999999999998,33.81,33.81,33.81000000000002,1.6280579355608324e-14,2.3684757858670005e-15,-4.52,-4.9,-4.645,-4.58,-4.52,0.15516120649182932,-0.08666666666666689
1 -> 2,0.12546500000000005,0.12546499999999997,0.125465,0.12546500000000002,0.12546500000000005,4.163336342344337e-17,9.25185853854297e-18,87.0,87.0,87.0,87.0,87.0,0.0,0.0,33.81000000000002,33.80999999999998,33.81,33.81,33.81000000000002,1.6280579355608324e-14,2.3684757858670005e-15,-5.89,-12.24,-8.8675,-8.67,-12.24,2.386497171588519,-2.1166666666666667
1 -> 2,0.12546500000000005,0.12546499999999997,0.125465,0.12546500000000002,0.12546500000000005,4.163336342344337e-17,9.25185853854297e-18,87.0,87.0,87.0,87.0,87.0,0.0,0.0,33.81000000000002,33.80999999999998,33.81,33.81,33.81000000000002,1.6280579355608324e-14,2.3684757858670005e-15,-5.89,-12.24,-8.8675,-8.67,-12.24,2.386497171588519,-2.1166666666666667
1 -> 2,0.12546500000000005,0.12546499999999997,0.125465,0.12546500000000002,0.12546500000000005,4.163336342344337e-17,9.25185853854297e-18,87.0,87.0,87.0,87.0,87.0,0.0,0.0,33.81000000000002,33.80999999999998,33.81,33.81,33.81000000000002,1.6280579355608324e-14,2.3684757858670005e-15,-14.57,-18.4,-16.7875,-17.09,-18.4,1.4594241158758472,-1.2766666666666662
1 -> 2,0.12546500000000005,0.12546499999999997,0.125465,0.12546500000000002,0.12546500000000005,4.163336342344337e-17,9.25185853854297e-18,87.0,87.0,87.0,87.0,87.0,0.0,0.0,33.81000000000002,33.80999999999998,33.81,33.81,33.81000000000002,1.6280579355608324e-14,2.3684757858670005e-15,-14.57,-18.4,-16.7875,-17.09,-18.4,1.4594241158758472,-1.2766666666666662
1 -> 2,0.12546500000000005,0.12546499999999997,0.125465,0.12546500000000002,0.12546500000000005,4.163336342344337e-17,9.25185853854297e-18,87.0,87.0,87.0,87.0,87.0,0.0,0.0,33.81000000000002,33.80999999999998,33.81,33.81,33.81000000000002,1.6280579355608324e-14,2.3684757858670005e-15,-17.77,-18.61,-18.27,-18.35,-18.61,0.32534596969994883,0.27999999999999997
1 -> 2,0.12546500000000005,0.12546499999999997,0.125465,0.12546500000000002,0.12546500000000005,4.163336342344337e-17,9.25185853854297e-18,87.0,87.0,87.0,87.0,87.0,0.0,0.0,33.81000000000002,33.80999999999998,33.81,33.81,33.81000000000002,1.6280579355608324e-14,2.3684757858670005e-15,-17.77,-18.61,-18.27,-18.35,-18.61,0.32534596969994883,0.27999999999999997
1 -> 2,0.12546500000000005,0.12546499999999997,0.125465,0.12546500000000002,0.12546500000000005,4.163336342344337e-17,9.25185853854297e-18,87.0,87.0,87.0,87.0,87.0,0.0,0.0,33.81000000000002,33.80999999999998,33.81,33.81,33.81000000000002,1.6280579355608324e-14,2.3684757858670005e-15,-13.56,-17.16,-15.5325,-15.705,-17.16,1.351580093816123,1.2
1 -> 2,0.12546500000000005,0.12546499999999997,0.125465,0.12546500000000002,0.12546500000000005,4.163336342344337e-17,9.25185853854297e-18,87.0,87.0,87.0,87.0,87.0,0.0,0.0,33.81000000000002,33.80999999999998,33.81,33.81,33.81000000000002,1.6280579355608324e-14,2.3684757858670005e-15,-13.56,-17.16,-15.5325,-15.705,-17.16,1.351580093816123,1.2
1 -> 2,0.12546500000000005,0.12546499999999997,0.125465,0.12546500000000002,0.12546500000000005,4.163336342344337e-17,9.25185853854297e-18,87.0,87.0,87.0,87.0,87.0,0.0,0.0,33.81000000000002,33.80999999999998,33.81,33.81,33.81000000000002,1.6280579355608324e-14,2.3684757858670005e-15,-5.38,-11.67,-8.515,-8.504999999999999,-11.67,2.350196800270139,2.0966666666666667
1 -> 2,0.12546500000000005,0.12546499999999997,0.125465,0.12546500000000002,0.12546500000000005,4.163336342344337e-17,9.25185853854297e-18,87.0,87.0,87.0,87.0,87.0,0.0,0.0,33.81000000000002,33.80999999999998,33.81,33.81,33.81000000000002,1.6280579355608324e-14,2.3684757858670005e-15,-5.38,-11.67,-8.515,-8.504999999999999,-11.67,2.350196800270139,2.0966666666666667
1 -> 2,0.12546500000000005,0.12546499999999997,0.125465,0.12546500000000002,0.12546500000000005,4.163336342344337e-17,9.25185853854297e-18,87.0,87.0,87.0,87.0,87.0,0.0,0.0,33.81000000000002,33.80999999999998,33.81,33.81,33.81000000000002,1.6280579355608324e-14,2.3684757858670005e-15,2.14,-3.49,-0.735,-0.7949999999999999,-3.49,2.0938779811631814,1.876666666666667
1 -> 2,0.12546500000000005,0.12546499999999997,0.125465,0.12546500000000002,0.12546500000000005,4.163336342344337e-17,9.25185853854297e-18,87.0,87.0,87.0,87.0,87.0,0.0,0.0,33.81000000000002,33.80999999999998,33.81,33.81,33.81000000000002,1.6280579355608324e-14,2.3684757858670005e-15,2.14,-3.49,-0.735,-0.7949999999999999,-3.49,2.0938779811631814,1.876666666666667
1 -> 2,0.12546500000000005,0.12546499999999997,0.125465,0.12546500000000002,0.12546500000000005,4.163336342344337e-17,9.25185853854297e-18,87.0,87.0,87.0,87.0,87.0,0.0,0.0,33.81000000000002,33.80999999999998,33.81,33.81,33.81000000000002,1.6280579355608324e-14,2.3684757858670005e-15,10.93,4.4,7.8025,7.9399999999999995,4.4,2.449248609267748,2.1766666666666663
1 -> 2,0.12546500000000005,0.12546499999999997,0.125465,0.12546500000000002,0.12546500000000005,4.163336342344337e-17,9.25185853854297e-18,87.0,87.0,87.0,87.0,87.0,0.0,0.0,33.81000000000002,33.80999999999998,33.81,33.81,33.81000000000002,1.6280579355608324e-14,2.3684757858670005e-15,10.93,4.4,7.8025,7.9399999999999995,4.4,2.449248609267748,2.1766666666666663
1 -> 2,0.12546500000000005,0.12546499999999997,0.125465,0.12546500000000002,0.12546500000000005,4.163336342344337e-17,9.25185853854297e-18,87.0,87.0,87.0,87.0,87.0,0.0,0.0,33.81000000000002,33.80999999999998,33.81,33.81,33.81000000000002,1.6280579355608324e-14,2.3684757858670005e-15,12.65,12.04,12.3475,12.350000000000001,12.04,0.26185635375144173,-0.033333333333333805
1 -> 2,0.12546500000000005,0.12546499999999997,0.125465,0.12546500000000002,0.12546500000000005,4.163336342344337e-17,9.25185853854297e-18,87.0,87.0,87.0,87.0,87.0,0.0,0.0,33.81000000000002,33.80999999999998,33.81,33.81,33.81000000000002,1.6280579355608324e-14,2.3684757858670005e-15,12.65,12.04,12.3475,12.350000000000001,12.04,0.26185635375144173,-0.033333333333333805
1 -> 2,0.12418400000000006,0.12418399999999993,0.12418400000000002,0.12418400000000003,0.12418400000000006,5.1460214472274106e-17,2.312964634635743e-17,87.0,87.0,87.0,87.0,87.0,0.0,0.0,33.81000000000002,33.80999999999998,33.81,33.81,33.81000000000002,1.6280579355608324e-14,2.3684757858670005e-15,11.29,8.87,10.0575,10.035,8.87,0.9048031553879551,-0.8066666666666666
1 -> 2,0.12418400000000006,0.12418399999999993,0.12418400000000002,0.12418400000000003,0.12418400000000006,5.1460214472274106e-17,2.312964634635743e-17,87.0,87.0,87.0,87.0,87.0,0.0,0.0,33.81000000000002,33.80999999999998,33.81,33.81,33.81000000000002,1.6280579355608324e-14,2.3684757858670005e-15,11.29,8.87,10.0575,10.035,8.87,0.9048031553879551,-0.8066666666666666
1 -> 2,0.12418400000000006,0.12418399999999993,0.12418400000000002,0.12418400000000003,0.12418400000000006,5.1460214472274106e-17,2.312964634635743e-17,87.0,87.0,87.0,87.0,87.0,0.0,0.0,33.81000000000002,33.80999999999998,33.81,33.81,33.81000000000002,1.6280579355608324e-14,2.3684757858670005e-15,8.21,6.67,7.4275,7.415,6.67,0.5715056867608584,-0.5133333333333336
1 -> 2,0.12418400000000006,0.12418399999999993,0.12418400000000002,0.12418400000000003,0.12418400000000006,5.1460214472274106e-17,2.312964634635743e-17,87.0,87.0,87.0,87.0,87.0,0.0,0.0,33.81000000000002,33.80999999999998,33.81,33.81,33.81000000000002,1.6280579355608324e-14,2.3684757858670005e-15,8.21,6.67,7.4275,7.415,6.67,0.5715056867608584,-0.5133333333333336
1 -> 2,0.12418400000000006,0.12418399999999993,0.12418400000000002,0.12418400000000003,0.12418400000000006,5.1460214472274106e-17,2.312964634635743e-17,87.0,87.0,87.0,87.0,87.0,0.0,0.0,33.81000000000002,33.80999999999998,33.81,33.81,33.81000000000002,1.6280579355608324e-14,2.3684757858670005e-15,6.07,3.69,4.9025,4.925,3.69,0.8914419498767153,-0.7933333333333334
1 -> 2,0.12418400000000006,0.12418399999999993,0.12418400000000002,0.12418400000000003,0.12418400000000006,5.1460214472274106e-17,2.312964634635743e-17,87.0,87.0,87.0,87.0,87.0,0.0,0.0,33.81000000000002,33.80999999999998,33.81,33.81,33.81000000000002,1.6280579355608324e-14,2.3684757858670005e-15,6.07,3.69,4.9025,4.925,3.69,0.8914419498767153,-0.7933333333333334
1 -> 2,0.12418400000000006,0.12418399999999993,0.12418400000000002,0.12418400000000003,0.12418400000000006,5.1460214472274106e-17,2.312964634635743e-17,87.0,87.0,87.0,87.0,87.0,0.0,0.0,33.81000000000002,33.80999999999998,33.81,33.81,33.81000000000002,1.6280579355608324e-14,2.3684757858670005e-15,3.28,2.73,2.9675,2.9299999999999997,2.73,0.21276454121869082,0.07999999999999992
1 -> 2,0.12418400000000006,0.12418399999999993,0.12418400000000002,0.12418400000000003,0.12418400000000006,5.1460214472274106e-17,2.312964634635743e-17,87.0,87.0,87.0,87.0,87.0,0.0,0.0,33.81000000000002,33.80999999999998,33.81,33.81,33.81000000000002,1.6280579355608324e-14,2.3684757858670005e-15,3.28,2.73,2.9675,2.9299999999999997,2.73,0.21276454121869082,0.07999999999999992
1 -> 2,0.12162400000000005,0.12162399999999995,0.12162400000000001,0.12162400000000001,0.12162400000000005,4.550137020152556e-17,4.625929269271485e-18,85.0,85.0,85.0,85.0,85.0,0.0,0.0,33.81000000000002,33.80999999999998,33.81,33.81,33.81000000000002,1.6280579355608324e-14,2.3684757858670005e-15,5.21,3.96,4.725,4.865,3.96,0.49012753442343965,0.4166666666666667
1 -> 2,0.12162400000000005,0.12162399999999995,0.12162400000000001,0.12162400000000001,0.12162400000000005,4.550137020152556e-17,4.625929269271485e-18,85.0,85.0,85.0,85.0,85.0,0.0,0.0,33.81000000000002,33.80999999999998,33.81,33.81,33.81000000000002,1.6280579355608324e-14,2.3684757858670005e-15,5.21,3.96,4.725,4.865,3.96,0.49012753442343965,0.4166666666666667
1 -> 2,0.12162400000000005,0.12162399999999995,0.12162400000000001,0.12162400000000001,0.12162400000000005,4.550137020152556e-17,4.625929269271485e-18,85.0,85.0,85.0,85.0,85.0,0.0,0.0,33.81000000000002,33.80999999999998,33.81,33.81,33.81000000000002,1.6280579355608324e-14,2.3684757858670005e-15,4.96,2.97,4.03,4.095000000000001,2.97,0.7474958193863026,-0.6633333333333332
1 -> 2,0.12162400000000005,0.12162399999999995,0.12162400000000001,0.12162400000000001,0.12162400000000005,4.550137020152556e-17,4.625929269271485e-18,85.0,85.0,85.0,85.0,85.0,0.0,0.0,33.81000000000002,33.80999999999998,33.81,33.81,33.81000000000002,1.6280579355608324e-14,2.3684757858670005e-15,4.96,2.97,4.03,4.095000000000001,2.97,0.7474958193863026,-0.6633333333333332
1 -> 2,0.12162400000000005,0.12162399999999995,0.12162400000000001,0.12162400000000001,0.12162400000000005,4.550137020152556e-17,4.625929269271485e-18,85.0,85.0,85.0,85.0,85.0,0.0,0.0,33.81000000000002,33.80999999999998,33.81,33.81,33.81000000000002,1.6280579355608324e-14,2.3684757858670005e-15,2.1,-1.55,0.38000000000000006,0.48500000000000004,-1.55,1.3635798473136804,-1.2166666666666666
1 -> 2,0.12162400000000005,0.12162399999999995,0.12162400000000001,0.12162400000000001,0.12162400000000005,4.550137020152556e-17,4.625929269271485e-18,85.0,85.0,85.0,85.0,85.0,0.0,0.0,33.81000000000002,33.80999999999998,33.81,33.81,33.81000000000002,1.6280579355608324e-14,2.3684757858670005e-15,2.1,-1.55,0.38000000000000006,0.48500000000000004,-1.55,1.3635798473136804,-1.2166666666666666
1 -> 2,0.12162400000000005,0.12162399999999995,0.12162400000000001,0.12162400000000001,0.12162400000000005,4.550137020152556e-17,4.625929269271485e-18,85.0,85.0,85.0,85.0,85.0,0.0,0.0,33.81000000000002,33.80999999999998,33.81,33.81,33.81000000000002,1.6280579355608324e-14,2.3684757858670005e-15,-3.14,-7.71,-5.51,-5.595,-7.71,1.7105408501406798,-1.5233333333333334
1 -> 2,0.12162400000000005,0.12162399999999995,0.12162400000000001,0.12162400000000001,0.12162400000000005,4.550137020152556e-17,4.625929269271485e-18,85.0,85.0,85.0,85.0,85.0,0.0,0.0,33.81000000000002,33.80999999999998,33.81,33.81,33.81000000000002,1.6280579355608324e-14,2.3684757858670005e-15,-3.14,-7.71,-5.51,-5.595,-7.71,1.7105408501406798,-1.5233333333333334
1 -> 2,0.11010200000000006,0.11010199999999992,0.110102,0.11010200000000003,0.11010200000000006,5.763878168445254e-17,2.312964634635743e-17,85.0,85.0,85.0,85.0,85.0,0.0,0.0,33.81000000000002,33.80999999999998,33.81,33.81,33.81000000000002,1.6280579355608324e-14,2.3684757858670005e-15,-8.66,-9.34,-9.11,-9.219999999999999,-9.34,0.2652357441974968,-0.19666666666666663
1 -> 2,0.11010200000000006,0.11010199999999992,0.110102,0.11010200000000003,0.11010200000000006,5.763878168445254e-17,2.312964634635743e-17,85.0,85.0,85.0,85.0,85.0,0.0,0.0,33.81000000000002,33.80999999999998,33.81,33.81,33.81000000000002,1.6280579355608324e-14,2.3684757858670005e-15,-8.66,-9.34,-9.11,-9.219999999999999,-9.34,0.2652357441974968,-0.19666666666666663
1 -> 2,0.11010200000000006,0.11010199999999992,0.110102,0.11010200000000003,0.11010200000000006,5.763878168445254e-17,2.312964634635743e-17,85.0,85.0,85.0,85.0,85.0,0.0,0.0,33.81000000000002,33.80999999999998,33.81,33.81,33.81000000000002,1.6280579355608324e-14,2.3684757858670005e-15,-8.05,-9.03,-8.5825,-8.625,-9.03,0.36382516405548365,0.3266666666666662
1 -> 2,0.11010200000000006,0.11010199999999992,0.110102,0.11010200000000003,0.11010200000000006,5.763878168445254e-17,2.312964634635743e-17,85.0,85.0,85.0,85.0,85.0,0.0,0.0,33.81000000000002,33.80999999999998,33.81,33.81,33.81000000000002,1.6280579355608324e-14,2.3684757858670005e-15,-8.05,-9.03,-8.5825,-8.625,-9.03,0.36382516405548365,0.3266666666666662
1 -> 2,0.11010200000000006,0.11010199999999992,0.110102,0.11010200000000003,0.11010200000000006,5.763878168445254e-17,2.312964634635743e-17,85.0,85.0,85.0,85.0,85.0,0.0,0.0,33.81000000000002,33.80999999999998,33.81,33.81,33.81000000000002,1.6280579355608324e-14,2.3684757858670005e-15,-1.58,-7.33,-4.8025,-5.15,-7.33,2.1690594159681287,1.9166666666666667
1 -> 2,0.11010200000000006,0.11010199999999992,0.110102,0.11010200000000003,0.11010200000000006,5.763878168445254e-17,2.312964634635743e-17,85.0,85.0,85.0,85.0,85.0,0.0,0.0,33.81000000000002,33.80999999999998,33.81,33.81,33.81000000000002,1.6280579355608324e-14,2.3684757858670005e-15,-1.58,-7.33,-4.8025,-5.15,-7.33,2.1690594159681287,1.9166666666666667
1 -> 2,0.11010200000000006,0.11010199999999992,0.110102,0.11010200000000003,0.11010200000000006,5.763878168445254e-17,2.312964634635743e-17,85.0,85.0,85.0,85.0,85.0,0.0,0.0,33.81000000000002,33.80999999999998,33.81,33.81,33.81000000000002,1.6280579355608324e-14,2.3684757858670005e-15,11.76,1.64,6.805,6.91,1.64,3.7850528397896905,3.3733333333333335
1 -> 2,0.11010200000000006,0.11010199999999992,0.110102,0.11010200000000003,0.11010200000000006,5.763878168445254e-17,2.312964634635743e-17,85.0,85.0,85.0,85.0,85.0,0.0,0.0,33.81000000000002,33.80999999999998,33.81,33.81,33.81000000000002,1.6280579355608324e-14,2.3684757858670005e-15,11.76,1.64,6.805,6.91,1.64,3.7850528397896905,3.3733333333333335
1 -> 2,0.11010200000000006,0.11010199999999992,0.110102,0.11010200000000003,0.11010200000000006,5.763878168445254e-17,2.312964634635743e-17,85.0,85.0,85.0,85.0,85.0,0.0,0.0,33.81000000000002,33.80999999999998,33.81,33.81,33.81000000000002,1.6280579355608324e-14,2.3684757858670005e-15,19.98,14.32,17.240000000000002,17.33,14.32,2.103948668575353,1.8866666666666667
1 -> 2,0.11010200000000006,0.11010199999999992,0.110102,0.11010200000000003,0.11010200000000006,5.763878168445254e-17,2.312964634635743e-17,85.0,85.0,85.0,85.0,85.0,0.0,0.0,33.81000000000002,33.80999999999998,33.81,33.81,33.81000000000002,1.6280579355608324e-14,2.3684757858670005e-15,19.98,14.32,17.240000000000002,17.33,14.32,2.103948668575353,1.8866666666666667
1 -> 2,0.11010200000000006,0.11010199999999992,0.110102,0.11010200000000003,0.11010200000000006,5.763878168445254e-17,2.312964634635743e-17,85.0,85.0,85.0,85.0,85.0,0.0,0.0,33.81000000000002,33.80999999999998,33.81,33.81,33.81000000000002,1.6280579355608324e-14,2.3684757858670005e-15,24.0,21.68,23.195,23.55,21.68,0.939614282564926,0.7600000000000003
1 -> 2,0.11010200000000006,0.11010199999999992,0.110102,0.11010200000000003,0.11010200000000006,5.763878168445254e-17,2.312964634635743e-17,85.0,85.0,85.0,85.0,85.0,0.0,0.0,33.81000000000002,33.80999999999998,33.81,33.81,33.81000000000002,1.6280579355608324e-14,2.3684757858670005e-15,24.0,21.68,23.195,23.55,21.68,0.939614282564926,0.7600000000000003
1 -> 2,0.11010200000000006,0.11010199999999992,0.110102,0.11010200000000003,0.11010200000000006,5.763878168445254e-17,2.312964634635743e-17,85.0,85.0,85.0,85.0,85.0,0.0,0.0,33.81000000000002,33.80999999999998,33.81,33.81,33.81000000000002,1.6280579355608324e-14,2.3684757858670005e-15,22.93,17.04,20.025,20.064999999999998,17.04,2.2147742548621068,-1.9633333333333336
1 -> 2,0.11010200000000006,0.11010199999999992,0.110102,0.11010200000000003,0.11010200000000006,5.763878168445254e-17,2.312964634635743e-17,85.0,85.0,85.0,85.0,85.0,0.0,0.0,33.81000000000002,33.80999999999998,33.81,33.81,33.81000000000002,1.6280579355608324e-14,2.3684757858670005e-15,22.93,17.04,20.025,20.064999999999998,17.04,2.2147742548621068,-1.9633333333333336
1 -> 2,0.11010200000000006,0.11010199999999992,0.110102,0.11010200000000003,0.11010200000000006,5.763878168445254e-17,2.312964634635743e-17,85.0,85.0,85.0,85.0,85.0,0.0,0.0,33.81000000000002,33.80999999999998,33.81,33.81,33.81000000000002,1.6280579355608324e-14,2.3684757858670005e-15,15.59,14.43,14.8175,14.625,14.43,0.4645091495331388,-0.3866666666666667
1 -> 2,0.11010200000000006,0.11010199999999992,0.110102,0.11010200000000003,0.11010200000000006,5.763878168445254e-17,2.312964634635743e-17,85.0,85.0,85.0,85.0,85.0,0.0,0.0,33.81000000000002,33.80999999999998,33.81,33.81,33.81000000000002,1.6280579355608324e-14,2.3684757858670005e-15,15.59,14.43,14.8175,14.625,14.43,0.4645091495331388,-0.3866666666666667
1 -> 2,0.10754100000000005,0.107541,0.10754100000000003,0.10754100000000004,0.10754100000000005,2.4037033579794548e-17,9.25185853854297e-18,85.0,85.0,85.0,85.0,85.0,0.0,0.0,33.81000000000002,33.80999999999998,33.81,33.81,33.81000000000002,1.6280579355608324e-14,2.3684757858670005e-15,14.28,10.29,12.67,13.055,10.29,1.5317473682040392,-1.33
1 -> 2,0.10754100000000005,0.107541,0.10754100000000003,0.10754100000000004,0.10754100000000005,2.4037033579794548e-17,9.25185853854297e-18,85.0,85.0,85.0,85.0,85.0,0.0,0.0,33.81000000000002,33.80999999999998,33.81,33.81,33.81000000000002,1.6280579355608324e-14,2.3684757858670005e-15,14.28,10.29,12.67,13.055,10.29,1.5317473682040392,-1.33
1 -> 2,0.10754100000000005,0.107541,0.10754100000000003,0.10754100000000004,0.10754100000000005,2.4037033579794548e-17,9.25185853854297e-18,85.0,85.0,85.0,85.0,85.0,0.0,0.0,33.81000000000002,33.80999999999998,33.81,33.81,33.81000000000002,1.6280579355608324e-14,2.3684757858670005e-15,7.4,-3.02,2.18,2.17,-3.02,3.8977108666498084,-3.473333333333333
1 -> 2,0.10754100000000005,0.107541,0.10754100000000003,0.10754100000000004,0.10754100000000005,2.4037033579794548e-17,9.25185853854297e-18,85.0,85.0,85.0,85.0,85.0,0.0,0.0,33.81000000000002,33.80999999999998,33.81,33.81,33.81000000000002,1.6280579355608324e-14,2.3684757858670005e-15,7.4,-3.02,2.18,2.17,-3.02,3.8977108666498084,-3.473333333333333
1 -> 2,0.10754100000000005,0.107541,0.10754100000000003,0.10754100000000004,0.10754100000000005,2.4037033579794548e-17,9.25185853854297e-18,85.0,85.0,85.0,85.0,85.0,0.0,0.0,33.81000000000002,33.80999999999998,33.81,33.81,33.81000000000002,1.6280579355608324e-14,2.3684757858670005e-15,-5.96,-12.09,-9.1875,-9.35,-12.09,2.283324057158773,-2.0433333333333334
1 -> 2,0.10754100000000005,0.107541,0.10754100000000003,0.10754100000000004,0.10754100000000005,2.4037033579794548e-17,9.25185853854297e-18,85.0,85.0,85.0,85.0,85.0,0.0,0.0,33.81000000000002,33.80999999999998,33.81,33.81,33.81000000000002,1.6280579355608324e-14,2.3684757858670005e-15,-5.96,-12.09,-9.1875,-9.35,-12.09,2.283324057158773,-2.0433333333333334
1 -> 2,0.10754100000000005,0.107541,0.10754100000000003,0.10754100000000004,0.10754100000000005,2.4037033579794548e-17,9.25185853854297e-18,85.0,85.0,85.0,85.0,85.0,0.0,0.0,33.81000000000002,33.80999999999998,33.81,33.81,33.81000000000002,1.6280579355608324e-14,2.3684757858670005e-15,-13.76,-17.48,-15.802500000000002,-15.985,-17.48,1.4062783330479074,-1.2400000000000002
1 -> 2,0.10754100000000005,0.107541,0.10754100000000003,0.10754100000000004,0.10754100000000005,2.4037033579794548e-17,9.25185853854297e-18,85.0,85.0,85.0,85.0,85.0,0.0,0.0,33.81000000000002,33.80999999999998,33.81,33.81,33.81000000000002,1.6280579355608324e-14,2.3684757858670005e-15,-13.76,-17.48,-15.802500000000002,-15.985,-17.48,1.4062783330479074,-1.2400000000000002
1 -> 2,0.10498100000000006,0.10498099999999996,0.10498100000000002,0.10498100000000003,0.10498100000000006,4.1051049941978724e-17,-1.3877787807814457e-17,83.44,83.44,83.44,83.44,83.44,0.0,0.0,33.83000000000001,33.829999999999984,33.83,33.83,33.83000000000001,1.2809491335957507e-14,2.3684757858670005e-15,-16.13,-17.73,-17.025,-17.119999999999997,-17.73,0.6140643288776841,0.5333333333333338
1 -> 2,0.10498100000000006,0.10498099999999996,0.10498100000000002,0.10498100000000003,0.10498100000000006,4.1051049941978724e-17,-1.3877787807814457e-17,83.44,83.44,83.44,83.44,83.44,0.0,0.0,33.83000000000001,33.829999999999984,33.83,33.83,33.83000000000001,1.2809491335957507e-14,2.3684757858670005e-15,-16.13,-17.73,-17.025,-17.119999999999997,-17.73,0.6140643288776841,0.5333333333333338
1 -> 2,0.10498100000000006,0.10498099999999996,0.10498100000000002,0.10498100000000003,0.10498100000000006,4.1051049941978724e-17,-1.3877787807814457e-17,83.44,83.44,83.44,83.44,83.44,0.0,0.0,33.83000000000001,33.829999999999984,33.83,33.83,33.83000000000001,1.2809491335957507e-14,2.3684757858670005e-15,-13.86,-15.58,-14.8275,-14.934999999999999,-15.58,0.6395066457825128,0.5733333333333336
1 -> 2,0.10498100000000006,0.10498099999999996,0.10498100000000002,0.10498100000000003,0.10498100000000006,4.1051049941978724e-17,-1.3877787807814457e-17,83.44,83.44,83.44,83.44,83.44,0.0,0.0,33.83000000000001,33.829999999999984,33.83,33.83,33.83000000000001,1.2809491335957507e-14,2.3684757858670005e-15,-13.86,-15.58,-14.8275,-14.934999999999999,-15.58,0.6395066457825128,0.5733333333333336
1 -> 2,0.10498100000000006,0.10498099999999996,0.10498100000000002,0.10498100000000003,0.10498100000000006,4.1051049941978724e-17,-1.3877787807814457e-17,83.44,83.44,83.44,83.44,83.44,0.0,0.0,33.83000000000001,33.829999999999984,33.83,33.83,33.83000000000001,1.2809491335957507e-14,2.3684757858670005e-15,-4.05,-12.4,-8.5075,-8.790000000000001,-12.4,3.1310251915307235,2.7833333333333337
1 -> 2,0.10498100000000006,0.10498099999999996,0.10498100000000002,0.10498100000000003,0.10498100000000006,4.1051049941978724e-17,-1.3877787807814457e-17,83.44,83.44,83.44,83.44,83.44,0.0,0.0,33.83000000000001,33.829999999999984,33.83,33.83,33.83000000000001,1.2809491335957507e-14,2.3684757858670005e-15,-4.05,-12.4,-8.5075,-8.790000000000001,-12.4,3.1310251915307235,2.7833333333333337
1 -> 2,0.10498100000000006,0.10498099999999996,0.10498100000000002,0.10498100000000003,0.10498100000000006,4.1051049941978724e-17,-1.3877787807814457e-17,83.44,83.44,83.44,83.44,83.44,0.0,0.0,33.83000000000001,33.829999999999984,33.83,33.83,33.83000000000001,1.2809491335957507e-14,2.3684757858670005e-15,10.46,-0.46,5.045,5.09,-0.46,4.074386456879122,3.6400000000000006
1 -> 2,0.10498100000000006,0.10498099999999996,0.10498100000000002,0.10498100000000003,0.10498100000000006,4.1051049941978724e-17,-1.3877787807814457e-17,83.44,83.44,83.44,83.44,83.44,0.0,0.0,33.83000000000001,33.829999999999984,33.83,33.83,33.83000000000001,1.2809491335957507e-14,2.3684757858670005e-15,10.46,-0.46,5.045,5.09,-0.46,4.074386456879122,3.6400000000000006
1 -> 2,0.11266200000000005,0.11266199999999993,0.11266200000000001,0.11266200000000004,0.11266200000000005,5.099024833164444e-17,2.7755575615628914e-17,83.44,83.44,83.44,83.44,83.44,0.0,0.0,33.83000000000001,33.829999999999984,33.83,33.83,33.83000000000001,1.2809491335957507e-14,2.3684757858670005e-15,21.0,13.69,17.549999999999997,17.755,13.69,2.73123598394573,2.436666666666667
1 -> 2,0.11266200000000005,0.11266199999999993,0.11266200000000001,0.11266200000000004,0.11266200000000005,5.099024833164444e-17,2.7755575615628914e-17,83.44,83.44,83.44,83.44,83.44,0.0,0.0,33.83000000000001,33.829999999999984,33.83,33.83,33.83000000000001,1.2809491335957507e-14,2.3684757858670005e-15,21.0,13.69,17.549999999999997,17.755,13.69,2.73123598394573,2.436666666666667
1 -> 2,0.11266200000000005,0.11266199999999993,0.11266200000000001,0.11266200000000004,0.11266200000000005,5.099024833164444e-17,2.7755575615628914e-17,83.44,83.44,83.44,83.44,83.44,0.0,0.0,33.83000000000001,33.829999999999984,33.83,33.83,33.83000000000001,1.2809491335957507e-14,2.3684757858670005e-15,25.41,22.68,24.2575,24.47,22.68,1.0426978229573518,0.9100000000000001
1 -> 2,0.11266200000000005,0.11266199999999993,0.11266200000000001,0.11266200000000004,0.11266200000000005,5.099024833164444e-17,2.7755575615628914e-17,83.44,83.44,83.44,83.44,83.44,0.0,0.0,33.83000000000001,33.829999999999984,33.83,33.83,33.83000000000001,1.2809491335957507e-14,2.3684757858670005e-15,25.41,22.68,24.2575,24.47,22.68,1.0426978229573518,0.9100000000000001
1 -> 2,0.11266200000000005,0.11266199999999993,0.11266200000000001,0.11266200000000004,0.11266200000000005,5.099024833164444e-17,2.7755575615628914e-17,83.44,83.44,83.44,83.44,83.44,0.0,0.0,33.83000000000001,33.829999999999984,33.83,33.83,33.83000000000001,1.2809491335957507e-14,2.3684757858670005e-15,25.36,22.08,23.965,24.21,22.08,1.2474273525941308,-1.0933333333333337
1 -> 2,0.11266200000000005,0.11266199999999993,0.11266200000000001,0.11266200000000004,0.11266200000000005,5.099024833164444e-17,2.7755575615628914e-17,83.44,83.44,83.44,83.44,83.44,0.0,0.0,33.83000000000001,33.829999999999984,33.83,33.83,33.83000000000001,1.2809491335957507e-14,2.3684757858670005e-15,25.36,22.08,23.965,24.21,22.08,1.2474273525941308,-1.0933333333333337
1 -> 2,0.11266200000000005,0.11266199999999993,0.11266200000000001,0.11266200000000004,0.11266200000000005,5.099024833164444e-17,2.7755575615628914e-17,83.44,83.44,83.44,83.44,83.44,0.0,0.0,33.83000000000001,33.829999999999984,33.83,33.83,33.83000000000001,1.2809491335957507e-14,2.3684757858670005e-15,20.05,11.46,15.9525,16.15,11.46,3.209255170596442,-2.8633333333333333
1 -> 2,0.11266200000000005,0.11266199999999993,0.11266200000000001,0.11266200000000004,0.11266200000000005,5.099024833164444e-17,2.7755575615628914e-17,83.44,83.44,83.44,83.44,83.44,0.0,0.0,33.83000000000001,33.829999999999984,33.83,33.83,33.83000000000001,1.2809491335957507e-14,2.3684757858670005e-15,20.05,11.46,15.9525,16.15,11.46,3.209255170596442,-2.8633333333333333
1 -> 2,0.11010200000000006,0.11010199999999992,0.110102,0.11010200000000003,0.11010200000000006,5.763878168445254e-17,2.312964634635743e-17,83.44,83.44,83.44,83.44,83.44,0.0,0.0,33.83000000000001,33.829999999999984,33.83,33.83,33.83000000000001,1.2809491335957507e-14,2.3684757858670005e-15,7.91,-3.56,2.21,2.245,-3.56,4.277750577114098,-3.823333333333333
1 -> 2,0.11010200000000006,0.11010199999999992,0.110102,0.11010200000000003,0.11010200000000006,5.763878168445254e-17,2.312964634635743e-17,83.44,83.44,83.44,83.44,83.44,0.0,0.0,33.83000000000001,33.829999999999984,33.83,33.83,33.83000000000001,1.2809491335957507e-14,2.3684757858670005e-15,7.91,-3.56,2.21,2.245,-3.56,4.277750577114098,-3.823333333333333
1 -> 2,0.11010200000000006,0.11010199999999992,0.110102,0.11010200000000003,0.11010200000000006,5.763878168445254e-17,2.312964634635743e-17,83.44,83.44,83.44,83.44,83.44,0.0,0.0,33.83000000000001,33.829999999999984,33.83,33.83,33.83000000000001,1.2809491335957507e-14,2.3684757858670005e-15,-7.39,-17.83,-12.7275,-12.844999999999999,-17.83,3.8958976821780107,-3.479999999999999
1 -> 2,0.11010200000000006,0.11010199999999992,0.110102,0.11010200000000003,0.11010200000000006,5.763878168445254e-17,2.312964634635743e-17,83.44,83.44,83.44,83.44,83.44,0.0,0.0,33.83000000000001,33.829999999999984,33.83,33.83,33.83000000000001,1.2809491335957507e-14,2.3684757858670005e-15,-7.39,-17.83,-12.7275,-12.844999999999999,-17.83,3.8958976821780107,-3.479999999999999
1 -> 2,0.11010200000000006,0.11010199999999992,0.110102,0.11010200000000003,0.11010200000000006,5.763878168445254e-17,2.312964634635743e-17,83.44,83.44,83.44,83.44,83.44,0.0,0.0,33.83000000000001,33.829999999999984,33.83,33.83,33.83000000000001,1.2809491335957507e-14,2.3684757858670005e-15,-20.73,-27.25,-24.17,-24.35,-27.25,2.4350359340264363,-2.1733333333333333
1 -> 2,0.11010200000000006,0.11010199999999992,0.110102,0.11010200000000003,0.11010200000000006,5.763878168445254e-17,2.312964634635743e-17,83.44,83.44,83.44,83.44,83.44,0.0,0.0,33.83000000000001,33.829999999999984,33.83,33.83,33.83000000000001,1.2809491335957507e-14,2.3684757858670005e-15,-20.73,-27.25,-24.17,-24.35,-27.25,2.4350359340264363,-2.1733333333333333
1 -> 2,0.11010200000000006,0.11010199999999992,0.110102,0.11010200000000003,0.11010200000000006,5.763878168445254e-17,2.312964634635743e-17,83.44,83.44,83.44,83.44,83.44,0.0,0.0,33.83000000000001,33.829999999999984,33.83,33.83,33.83000000000001,1.2809491335957507e-14,2.3684757858670005e-15,-28.82,-33.99,-31.2725,-31.14,-33.99,1.9243489158673908,-1.7233333333333338
1 -> 2,0.11010200000000006,0.11010199999999992,0.110102,0.11010200000000003,0.11010200000000006,5.763878168445254e-17,2.312964634635743e-17,83.44,83.44,83.44,83.44,83.44,0.0,0.0,33.83000000000001,33.829999999999984,33.83,33.83,33.83000000000001,1.2809491335957507e-14,2.3684757858670005e-15,-28.82,-33.99,-31.2725,-31.14,-33.99,1.9243489158673908,-1.7233333333333338
1 -> 2,0.10754100000000005,0.107541,0.10754100000000003,0.10754100000000004,0.10754100000000005,2.4037033579794548e-17,9.25185853854297e-18,83.44,83.44,83.44,83.44,83.44,0.0,0.0,33.83000000000001,33.829999999999984,33.83,33.83,33.83000000000001,1.2809491335957507e-14,2.3684757858670005e-15,-36.44,-43.46,-40.1675,-40.385000000000005,-43.46,2.6447814181894134,-2.340000000000001
1 -> 2,0.10754100000000005,0.107541,0.10754100000000003,0.10754100000000004,0.10754100000000005,2.4037033579794548e-17,9.25185853854297e-18,83.44,83.44,83.44,83.44,83.44,0.0,0.0,33.83000000000001,33.829999999999984,33.83,33.83,33.83000000000001,1.2809491335957507e-14,2.3684757858670005e-15,-36.44,-43.46,-40.1675,-40.385000000000005,-43.46,2.6447814181894134,-2.340000000000001
1 -> 2,0.10754100000000005,0.107541,0.10754100000000003,0.10754100000000004,0.10754100000000005,2.4037033579794548e-17,9.25185853854297e-18,83.44,83.44,83.44,83.44,83.44,0.0,0.0,33.83000000000001,33.829999999999984,33.83,33.83,33.83000000000001,1.2809491335957507e-14,2.3684757858670005e-15,-38.87,-44.15,-42.035000000000004,-42.56,-44.15,2.0499329257319623,1.7600000000000005
1 -> 2,0.10754100000000005,0.107541,0.10754100000000003,0.10754100000000004,0.10754100000000005,2.4037033579794548e-17,9.25185853854297e-18,83.44,83.44,83.44,83.44,83.44,0.0,0.0,33.83000000000001,33.829999999999984,33.83,33.83,33.83000000000001,1.2809491335957507e-14,2.3684757858670005e-15,-38.87,-44.15,-42.035000000000004,-42.56,-44.15,2.0499329257319623,1.7600000000000005
1 -> 2,0.10754100000000005,0.107541,0.10754100000000003,0.10754100000000004,0.10754100000000005,2.4037033579794548e-17,9.25185853854297e-18,83.44,83.44,83.44,83.44,83.44,0.0,0.0,33.83000000000001,33.829999999999984,33.83,33.83,33.83000000000001,1.2809491335957507e-14,2.3684757858670005e-15,-26.59,-35.7,-31.047500000000003,-30.95,-35.7,3.3991129357525036,3.0366666666666675
1 -> 2,0.10754100000000005,0.107541,0.10754100000000003,0.10754100000000004,0.10754100000000005,2.4037033579794548e-17,9.25185853854297e-18,83.44,83.44,83.44,83.44,83.44,0.0,0.0,33.83000000000001,33.829999999999984,33.83,33.83,33.83000000000001,1.2809491335957507e-14,2.3684757858670005e-15,-26.59,-35.7,-31.047500000000003,-30.95,-35.7,3.3991129357525036,3.0366666666666675
1 -> 2,0.10754100000000005,0.107541,0.10754100000000003,0.10754100000000004,0.10754100000000005,2.4037033579794548e-17,9.25185853854297e-18,83.44,83.44,83.44,83.44,83.44,0.0,0.0,33.83000000000001,33.829999999999984,33.83,33.83,33.83000000000001,1.2809491335957507e-14,2.3684757858670005e-15,-16.6,-23.94,-20.2275,-20.185000000000002,-23.94,2.7361594891380143,2.4466666666666668
1 -> 2,0.10754100000000005,0.107541,0.10754100000000003,0.10754100000000004,0.10754100000000005,2.4037033579794548e-17,9.25185853854297e-18,83.44,83.44,83.44,83.44,83.44,0.0,0.0,33.83000000000001,33.829999999999984,33.83,33.83,33.83000000000001,1.2809491335957507e-14,2.3684757858670005e-15,-16.6,-23.94,-20.2275,-20.185000000000002,-23.94,2.7361594891380143,2.4466666666666668
1 -> 2,0.11010200000000006,0.11010199999999992,0.110102,0.11010200000000003,0.11010200000000006,5.763878168445254e-17,2.312964634635743e-17,82.1,82.1,82.1,82.1,82.1,0.0,0.0,33.81000000000002,33.80999999999998,33.81,33.81,33.81000000000002,1.6280579355608324e-14,2.3684757858670005e-15,-7.27,-14.29,-10.809999999999999,-10.84,-14.29,2.614144219433962,2.34
1 -> 2,0.11010200000000006,0.11010199999999992,0.110102,0.11010200000000003,0.11010200000000006,5.763878168445254e-17,2.312964634635743e-17,82.1,82.1,82.1,82.1,82.1,0.0,0.0,33.81000000000002,33.80999999999998,33.81,33.81,33.81000000000002,1.6280579355608324e-14,2.3684757858670005e-15,-7.27,-14.29,-10.809999999999999,-10.84,-14.29,2.614144219433962,2.34
1 -> 2,0.11010200000000006,0.11010199999999992,0.110102,0.11010200000000003,0.11010200000000006,5.763878168445254e-17,2.312964634635743e-17,82.1,82.1,82.1,82.1,82.1,0.0,0.0,33.81000000000002,33.80999999999998,33.81,33.81,33.81000000000002,1.6280579355608324e-14,2.3684757858670005e-15,2.28,-4.79,-1.1775000000000002,-1.0999999999999999,-4.79,2.6408556851899347,2.356666666666667
1 -> 2,0.11010200000000006,0.11010199999999992,0.110102,0.11010200000000003,0.11010200000000006,5.763878168445254e-17,2.312964634635743e-17,82.1,82.1,82.1,82.1,82.1,0.0,0.0,33.81000000000002,33.80999999999998,33.81,33.81,33.81000000000002,1.6280579355608324e-14,2.3684757858670005e-15,2.28,-4.79,-1.1775000000000002,-1.0999999999999999,-4.79,2.6408556851899347,2.356666666666667
1 -> 2,0.11010200000000006,0.11010199999999992,0.110102,0.11010200000000003,0.11010200000000006,5.763878168445254e-17,2.312964634635743e-17,82.1,82.1,82.1,82.1,82.1,0.0,0.0,33.81000000000002,33.80999999999998,33.81,33.81,33.81000000000002,1.6280579355608324e-14,2.3684757858670005e-15,7.19,4.16,5.920000000000001,6.165,4.16,1.1576916687961436,1.01
1 -> 2,0.11010200000000006,0.11010199999999992,0.110102,0.11010200000000003,0.11010200000000006,5.763878168445254e-17,2.312964634635743e-17,82.1,82.1,82.1,82.1,82.1,0.0,0.0,33.81000000000002,33.80999999999998,33.81,33.81,33.81000000000002,1.6280579355608324e-14,2.3684757858670005e-15,7.19,4.16,5.920000000000001,6.165,4.16,1.1576916687961436,1.01
1 -> 2,0.11010200000000006,0.11010199999999992,0.110102,0.11010200000000003,0.11010200000000006,5.763878168445254e-17,2.312964634635743e-17,82.1,82.1,82.1,82.1,82.1,0.0,0.0,33.81000000000002,33.80999999999998,33.81,33.81,33.81000000000002,1.6280579355608324e-14,2.3684757858670005e-15,7.18,5.69,6.44,6.445,5.69,0.5692538976590321,-0.4966666666666664
1 -> 2,0.11010200000000006,0.11010199999999992,0.110102,0.11010200000000003,0.11010200000000006,5.763878168445254e-17,2.312964634635743e-17,82.1,82.1,82.1,82.1,82.1,0.0,0.0,33.81000000000002,33.80999999999998,33.81,33.81,33.81000000000002,1.6280579355608324e-14,2.3684757858670005e-15,7.18,5.69,6.44,6.445,5.69,0.5692538976590321,-0.4966666666666664
1 -> 2,0.10882100000000006,0.10882099999999999,0.10882100000000003,0.10882100000000003,0.10882100000000006,2.943923360032078e-17,9.25185853854297e-18,82.1,82.1,82.1,82.1,82.1,0.0,0.0,33.81000000000002,33.80999999999998,33.81,33.81,33.81000000000002,1.6280579355608324e-14,2.3684757858670005e-15,7.67,5.67,6.612500000000001,6.555,5.67,0.7624426207918862,0.6666666666666666
1 -> 2,0.10882100000000006,0.10882099999999999,0.10882100000000003,0.10882100000000003,0.10882100000000006,2.943923360032078e-17,9.25185853854297e-18,82.1,82.1,82.1,82.1,82.1,0.0,0.0,33.81000000000002,33.80999999999998,33.81,33.81,33.81000000000002,1.6280579355608324e-14,2.3684757858670005e-15,7.67,5.67,6.612500000000001,6.555,5.67,0.7624426207918862,0.6666666666666666
1 -> 2,0.10882100000000006,0.10882099999999999,0.10882100000000003,0.10882100000000003,0.10882100000000006,2.943923360032078e-17,9.25185853854297e-18,82.1,82.1,82.1,82.1,82.1,0.0,0.0,33.81000000000002,33.80999999999998,33.81,33.81,33.81000000000002,1.6280579355608324e-14,2.3684757858670005e-15,7.94,4.93,6.7125,6.99,4.93,1.164181579479765,-1.0033333333333336
1 -> 2,0.10882100000000006,0.10882099999999999,0.10882100000000003,0.10882100000000003,0.10882100000000006,2.943923360032078e-17,9.25185853854297e-18,82.1,82.1,82.1,82.1,82.1,0.0,0.0,33.81000000000002,33.80999999999998,33.81,33.81,33.81000000000002,1.6280579355608324e-14,2.3684757858670005e-15,7.94,4.93,6.7125,6.99,4.93,1.164181579479765,-1.0033333333333336
1 -> 2,0.10882100000000006,0.10882099999999999,0.10882100000000003,0.10882100000000003,0.10882100000000006,2.943923360032078e-17,9.25185853854297e-18,82.1,82.1,82.1,82.1,82.1,0.0,0.0,33.81000000000002,33.80999999999998,33.81,33.81,33.81000000000002,1.6280579355608324e-14,2.3684757858670005e-15,3.26,-0.41,1.2399999999999998,1.055,-0.41,1.385442167685104,-1.2233333333333334
1 -> 2,0.10882100000000006,0.10882099999999999,0.10882100000000003,0.10882100000000003,0.10882100000000006,2.943923360032078e-17,9.25185853854297e-18,82.1,82.1,82.1,82.1,82.1,0.0,0.0,33.81000000000002,33.80999999999998,33.81,33.81,33.81000000000002,1.6280579355608324e-14,2.3684757858670005e-15,3.26,-0.41,1.2399999999999998,1.055,-0.41,1.385442167685104,-1.2233333333333334
1 -> 2,0.10882100000000006,0.10882099999999999,0.10882100000000003,0.10882100000000003,0.10882100000000006,2.943923360032078e-17,9.25185853854297e-18,82.1,82.1,82.1,82.1,82.1,0.0,0.0,33.81000000000002,33.80999999999998,33.81,33.81,33.81000000000002,1.6280579355608324e-14,2.3684757858670005e-15,2.92,-0.66,0.7749999999999999,0.42000000000000004,-0.66,1.3835190638368522,1.1933333333333334
1 -> 2,0.10882100000000006,0.10882099999999999,0.10882100000000003,0.10882100000000003,0.10882100000000006,2.943923360032078e-17,9.25185853854297e-18,82.1,82.1,82.1,82.1,82.1,0.0,0.0,33.81000000000002,33.80999999999998,33.81,33.81,33.81000000000002,1.6280579355608324e-14,2.3684757858670005e-15,2.92,-0.66,0.7749999999999999,0.42000000000000004,-0.66,1.3835190638368522,1.1933333333333334
1 -> 2,0.10626100000000005,0.10626099999999998,0.10626100000000002,0.10626100000000002,0.10626100000000005,2.943923360032078e-17,9.25185853854297e-18,82.1,82.1,82.1,82.1,82.1,0.0,0.0,33.81000000000002,33.80999999999998,33.81,33.81,33.81000000000002,1.6280579355608324e-14,2.3684757858670005e-15,12.15,5.26,8.8075,8.91,5.26,2.576959206118716,2.296666666666667
1 -> 2,0.10626100000000005,0.10626099999999998,0.10626100000000002,0.10626100000000002,0.10626100000000005,2.943923360032078e-17,9.25185853854297e-18,82.1,82.1,82.1,82.1,82.1,0.0,0.0,33.81000000000002,33.80999999999998,33.81,33.81,33.81000000000002,1.6280579355608324e-14,2.3684757858670005e-15,12.15,5.26,8.8075,8.91,5.26,2.576959206118716,2.296666666666667
1 -> 2,0.10626100000000005,0.10626099999999998,0.10626100000000002,0.10626100000000002,0.10626100000000005,2.943923360032078e-17,9.25185853854297e-18,82.1,82.1,82.1,82.1,82.1,0.0,0.0,33.81000000000002,33.80999999999998,33.81,33.81,33.81000000000002,1.6280579355608324e-14,2.3684757858670005e-15,15.91,13.82,15.135000000000002,15.405000000000001,13.82,0.8257875029328064,0.6966666666666667
1 -> 2,0.10626100000000005,0.10626099999999998,0.10626100000000002,0.10626100000000002,0.10626100000000005,2.943923360032078e-17,9.25185853854297e-18,82.1,82.1,82.1,82.1,82.1,0.0,0.0,33.81000000000002,33.80999999999998,33.81,33.81,33.81000000000002,1.6280579355608324e-14,2.3684757858670005e-15,15.91,13.82,15.135000000000002,15.405000000000001,13.82,0.8257875029328064,0.6966666666666667
1 -> 2,0.10626100000000005,0.10626099999999998,0.10626100000000002,0.10626100000000002,0.10626100000000005,2.943923360032078e-17,9.25185853854297e-18,82.1,82.1,82.1,82.1,82.1,0.0,0.0,33.81000000000002,33.80999999999998,33.81,33.81,33.81000000000002,1.6280579355608324e-14,2.3684757858670005e-15,15.51,12.09,13.91,14.02,12.09,1.2861376287163049,-1.14
1 -> 2,0.10626100000000005,0.10626099999999998,0.10626100000000002,0.10626100000000002,0.10626100000000005,2.943923360032078e-17,9.25185853854297e-18,82.1,82.1,82.1,82.1,82.1,0.0,0.0,33.81000000000002,33.80999999999998,33.81,33.81,33.81000000000002,1.6280579355608324e-14,2.3684757858670005e-15,15.51,12.09,13.91,14.02,12.09,1.2861376287163049,-1.14
1 -> 2,0.10626100000000005,0.10626099999999998,0.10626100000000002,0.10626100000000002,0.10626100000000005,2.943923360032078e-17,9.25185853854297e-18,82.1,82.1,82.1,82.1,82.1,0.0,0.0,33.81000000000002,33.80999999999998,33.81,33.81,33.81000000000002,1.6280579355608324e-14,2.3684757858670005e-15,10.79,7.7,9.182500000000001,9.120000000000001,7.7,1.152158300755586,-1.0299999999999996
1 -> 2,0.10626100000000005,0.10626099999999998,0.10626100000000002,0.10626100000000002,0.10626100000000005,2.943923360032078e-17,9.25185853854297e-18,82.1,82.1,82.1,82.1,82.1,0.0,0.0,33.81000000000002,33.80999999999998,33.81,33.81,33.81000000000002,1.6280579355608324e-14,2.3684757858670005e-15,10.79,7.7,9.182500000000001,9.120000000000001,7.7,1.152158300755586,-1.0299999999999996
1 -> 2,0.10882100000000006,0.10882099999999999,0.10882100000000003,0.10882100000000003,0.10882100000000006,2.943923360032078e-17,9.25185853854297e-18,82.1,82.1,82.1,82.1,82.1,0.0,0.0,33.81000000000002,33.80999999999998,33.81,33.81,33.81000000000002,1.6280579355608324e-14,2.3684757858670005e-15,6.85,4.92,5.8100000000000005,5.735,4.92,0.7261886807159691,-0.6433333333333332
1 -> 2,0.10882100000000006,0.10882099999999999,0.10882100000000003,0.10882100000000003,0.10882100000000006,2.943923360032078e-17,9.25185853854297e-18,82.1,82.1,82.1,82.1,82.1,0.0,0.0,33.81000000000002,33.80999999999998,33.81,33.81,33.81000000000002,1.6280579355608324e-14,2.3684757858670005e-15,6.85,4.92,5.8100000000000005,5.735,4.92,0.7261886807159691,-0.6433333333333332
1 -> 2,0.10882100000000006,0.10882099999999999,0.10882100000000003,0.10882100000000003,0.10882100000000006,2.943923360032078e-17,9.25185853854297e-18,82.1,82.1,82.1,82.1,82.1,0.0,0.0,33.81000000000002,33.80999999999998,33.81,33.81,33.81000000000002,1.6280579355608324e-14,2.3684757858670005e-15,4.64,4.14,4.422499999999999,4.455,4.14,0.18389874931602987,-0.16666666666666666
1 -> 2,0.10882100000000006,0.10882099999999999,0.10882100000000003,0.10882100000000003,0.10882100000000006,2.943923360032078e-17,9.25185853854297e-18,82.1,82.1,82.1,82.1,82.1,0.0,0.0,33.81000000000002,33.80999999999998,33.81,33.81,33.81000000000002,1.6280579355608324e-14,2.3684757858670005e-15,4.64,4.14,4.422499999999999,4.455,4.14,0.18389874931602987,-0.16666666666666666
1 -> 2,0.10882100000000006,0.10882099999999999,0.10882100000000003,0.10882100000000003,0.10882100000000006,2.943923360032078e-17,9.25185853854297e-18,82.1,82.1,82.1,82.1,82.1,0.0,0.0,33.81000000000002,33.80999999999998,33.81,33.81,33.81000000000002,1.6280579355608324e-14,2.3684757858670005e-15,3.63,1.01,2.36,2.4,1.01,0.9825731524929836,-0.8733333333333334
1 -> 2,0.10882100000000006,0.10882099999999999,0.10882100000000003,0.10882100000000003,0.10882100000000006,2.943923360032078e-17,9.25185853854297e-18,82.1,82.1,82.1,82.1,82.1,0.0,0.0,33.81000000000002,33.80999999999998,33.81,33.81,33.81000000000002,1.6280579355608324e-14,2.3684757858670005e-15,3.63,1.01,2.36,2.4,1.01,0.9825731524929836,-0.8733333333333334
1 -> 2,0.10882100000000006,0.10882099999999999,0.10882100000000003,0.10882100000000003,0.10882100000000006,2.943923360032078e-17,9.25185853854297e-18,82.1,82.1,82.1,82.1,82.1,0.0,0.0,33.81000000000002,33.80999999999998,33.81,33.81,33.81000000000002,1.6280579355608324e-14,2.3684757858670005e-15,0.2,-1.36,-0.6325000000000001,-0.685,-1.36,0.580490094661399,-0.52
1 -> 2,0.10882100000000006,0.10882099999999999,0.10882100000000003,0.10882100000000003,0.10882100000000006,2.943923360032078e-17,9.25185853854297e-18,82.1,82.1,82.1,82.1,82.1,0.0,0.0,33.81000000000002,33.80999999999998,33.81,33.81,33.81000000000002,1.6280579355608324e-14,2.3684757858670005e-15,0.2,-1.36,-0.6325000000000001,-0.685,-1.36,0.580490094661399,-0.52
