PHASE,EDA_MAX,EDA_MIN,EDA_MEAN,EDA_MEDIAN,EDA_MODE,EDA_SD,EDA_DIFF,HR_MAX,HR_MIN,HR_MEAN,HR_MEDIAN,HR_MODE,HR_SD,HR_DIFF,SKT_MAX,SKT_MIN,SKT_MEAN,SKT_MEDIAN,SKT_MODE,SKT_SD,SKT_DIFF,BVP_MAX,BVP_MIN,BVP_MEAN,BVP_MEDIAN,BVP_MODE,BVP_SD,BVP_DIFF
1 -> 2,0.19843900000000012,0.19843899999999998,0.19843900000000003,0.19843900000000003,0.19843899999999998,7.076311083754595e-17,0.0,85.0,85.0,85.0,85.0,85.0,0.0,0.0,27.270000000000014,27.269999999999985,27.27,27.27,27.269999999999985,1.4210854715202004e-14,0.0,-3.95,-10.75,-7.215,-7.08,-10.75,2.5392961623253005,-2.2666666666666666
1 -> 2,0.19843900000000012,0.19843899999999998,0.19843900000000003,0.19843900000000003,0.19843899999999998,7.076311083754595e-17,0.0,85.0,85.0,85.0,85.0,85.0,0.0,0.0,27.270000000000014,27.269999999999985,27.27,27.27,27.269999999999985,1.4210854715202004e-14,0.0,-3.95,-10.75,-7.215,-7.08,-10.75,2.5392961623253005,-2.2666666666666666
1 -> 2,0.19843900000000012,0.19843899999999998,0.19843900000000003,0.19843900000000003,0.19843899999999998,7.076311083754595e-17,0.0,85.0,85.0,85.0,85.0,85.0,0.0,0.0,27.270000000000014,27.269999999999985,27.27,27.27,27.269999999999985,1.4210854715202004e-14,0.0,-13.36,-18.93,-16.43,-16.715,-18.93,2.1012734234268517,-1.8566666666666667
1 -> 2,0.19843900000000012,0.19843899999999998,0.19843900000000003,0.19843900000000003,0.19843899999999998,7.076311083754595e-17,0.0,85.0,85.0,85.0,85.0,85.0,0.0,0.0,27.270000000000014,27.269999999999985,27.27,27.27,27.269999999999985,1.4210854715202004e-14,0.0,-13.36,-18.93,-16.43,-16.715,-18.93,2.1012734234268517,-1.8566666666666667
1 -> 2,0.19843900000000012,0.19843899999999998,0.19843900000000003,0.19843900000000003,0.19843899999999998,7.076311083754595e-17,0.0,85.0,85.0,85.0,85.0,85.0,0.0,0.0,27.270000000000014,27.269999999999985,27.27,27.27,27.269999999999985,1.4210854715202004e-14,0.0,-19.58,-21.4,-20.322499999999998,-20.155,-21.4,0.6853603067000594,-0.6066666666666668
1 -> 2,0.19843900000000012,0.19843899999999998,0.19843900000000003,0.19843900000000003,0.19843899999999998,7.076311083754595e-17,0.0,85.0,85.0,85.0,85.0,85.0,0.0,0.0,27.270000000000014,27.269999999999985,27.27,27.27,27.269999999999985,1.4210854715202004e-14,0.0,-19.58,-21.4,-20.322499999999998,-20.155,-21.4,0.6853603067000594,-0.6066666666666668
1 -> 2,0.19843900000000012,0.19843899999999998,0.19843900000000003,0.19843900000000003,0.19843899999999998,7.076311083754595e-17,0.0,85.0,85.0,85.0,85.0,85.0,0.0,0.0,27.270000000000014,27.269999999999985,27.27,27.27,27.269999999999985,1.4210854715202004e-14,0.0,-23.17,-31.0,-27.0775,-27.07,-31.0,2.942400168230011,-2.6099999999999994
1 -> 2,0.19843900000000012,0.19843899999999998,0.19843900000000003,0.19843900000000003,0.19843899999999998,7.076311083754595e-17,0.0,85.0,85.0,85.0,85.0,85.0,0.0,0.0,27.270000000000014,27.269999999999985,27.27,27.27,27.269999999999985,1.4210854715202004e-14,0.0,-23.17,-31.0,-27.0775,-27.07,-31.0,2.942400168230011,-2.6099999999999994
1 -> 2,0.1933180000000001,0.193318,0.19331800000000005,0.19331800000000005,0.193318,5.551115123125783e-17,0.0,85.0,85.0,85.0,85.0,85.0,0.0,0.0,27.270000000000014,27.269999999999985,27.27,27.27,27.269999999999985,1.4210854715202004e-14,0.0,-26.09,-32.51,-30.295,-31.29,-32.51,2.5933135174907016,2.1399999999999992
1 -> 2,0.1933180000000001,0.193318,0.19331800000000005,0.19331800000000005,0.193318,5.551115123125783e-17,0.0,85.0,85.0,85.0,85.0,85.0,0.0,0.0,27.270000000000014,27.269999999999985,27.27,27.27,27.269999999999985,1.4210854715202004e-14,0.0,-26.09,-32.51,-30.295,-31.29,-32.51,2.5933135174907016,2.1399999999999992
1 -> 2,0.1933180000000001,0.193318,0.19331800000000005,0.19331800000000005,0.193318,5.551115123125783e-17,0.0,85.0,85.0,85.0,85.0,85.0,0.0,0.0,27.270000000000014,27.269999999999985,27.27,27.27,27.269999999999985,1.4210854715202004e-14,0.0,-3.25,-20.49,-11.559999999999999,-11.25,-20.49,6.458974376787695,5.746666666666666
1 -> 2,0.1933180000000001,0.193318,0.19331800000000005,0.19331800000000005,0.193318,5.551115123125783e-17,0.0,85.0,85.0,85.0,85.0,85.0,0.0,0.0,27.270000000000014,27.269999999999985,27.27,27.27,27.269999999999985,1.4210854715202004e-14,0.0,-3.25,-20.49,-11.559999999999999,-11.25,-20.49,6.458974376787695,5.746666666666666
1 -> 2,0.1933180000000001,0.193318,0.19331800000000005,0.19331800000000005,0.193318,5.551115123125783e-17,0.0,85.0,85.0,85.0,85.0,85.0,0.0,0.0,27.270000000000014,27.269999999999985,27.27,27.27,27.269999999999985,1.4210854715202004e-14,0.0,6.31,0.44,3.615,3.855,0.44,2.182939531915623,1.9566666666666668
1 -> 2,0.1933180000000001,0.193318,0.19331800000000005,0.19331800000000005,0.193318,5.551115123125783e-17,0.0,85.0,85.0,85.0,85.0,85.0,0.0,0.0,27.270000000000014,27.269999999999985,27.27,27.27,27.269999999999985,1.4210854715202004e-14,0.0,6.31,0.44,3.615,3.855,0.44,2.182939531915623,1.9566666666666668
1 -> 2,0.1933180000000001,0.193318,0.19331800000000005,0.19331800000000005,0.193318,5.551115123125783e-17,0.0,85.0,85.0,85.0,85.0,85.0,0.0,0.0,27.270000000000014,27.269999999999985,27.27,27.27,27.269999999999985,1.4210854715202004e-14,0.0,12.99,7.98,10.585,10.685,7.98,1.881256229225567,1.67
1 -> 2,0.1933180000000001,0.193318,0.19331800000000005,0.19331800000000005,0.193318,5.551115123125783e-17,0.0,85.0,85.0,85.0,85.0,85.0,0.0,0.0,27.270000000000014,27.269999999999985,27.27,27.27,27.269999999999985,1.4210854715202004e-14,0.0,12.99,7.98,10.585,10.685,7.98,1.881256229225567,1.67
1 -> 2,0.1971590000000001,0.19715899999999992,0.19715900000000003,0.19715900000000003,0.1971590000000001,8.554842949272357e-17,1.850371707708594e-17,85.0,85.0,85.0,85.0,85.0,0.0,0.0,27.270000000000014,27.269999999999985,27.27,27.27,27.269999999999985,1.4210854715202004e-14,0.0,13.98,12.97,13.5975,13.72,12.97,0.3828429834801729,-0.27999999999999997
1 -> 2,0.1971590000000001,0.19715899999999992,0.19715900000000003,0.19715900000000003,0.1971590000000001,8.554842949272357e-17,1.850371707708594e-17,85.0,85.0,85.0,85.0,85.0,0.0,0.0,27.270000000000014,27.269999999999985,27.27,27.27,27.269999999999985,1.4210854715202004e-14,0.0,13.98,12.97,13.5975,13.72,12.97,0.3828429834801729,-0.27999999999999997
1 -> 2,0.1971590000000001,0.19715899999999992,0.19715900000000003,0.19715900000000003,0.1971590000000001,8.554842949272357e-17,1.850371707708594e-17,85.0,85.0,85.0,85.0,85.0,0.0,0.0,27.270000000000014,27.269999999999985,27.27,27.27,27.269999999999985,1.4210854715202004e-14,0.0,12.25,10.9,11.4975,11.42,10.9,0.5079554606459113,-0.4499999999999999
1 -> 2,0.1971590000000001,0.19715899999999992,0.19715900000000003,0.19715900000000003,0.1971590000000001,8.554842949272357e-17,1.850371707708594e-17,85.0,85.0,85.0,85.0,85.0,0.0,0.0,27.270000000000014,27.269999999999985,27.27,27.27,27.269999999999985,1.4210854715202004e-14,0.0,12.25,10.9,11.4975,11.42,10.9,0.5079554606459113,-0.4499999999999999
1 -> 2,0.1971590000000001,0.19715899999999992,0.19715900000000003,0.19715900000000003,0.1971590000000001,8.554842949272357e-17,1.850371707708594e-17,85.0,85.0,85.0,85.0,85.0,0.0,0.0,27.270000000000014,27.269999999999985,27.27,27.27,27.269999999999985,1.4210854715202004e-14,0.0,10.71,10.13,10.440000000000001,10.46,10.13,0.2156385865284784,-0.19333333333333336
1 -> 2,0.1971590000000001,0.19715899999999992,0.19715900000000003,0.19715900000000003,0.1971590000000001,8.554842949272357e-17,1.850371707708594e-17,85.0,85.0,85.0,85.0,85.0,0.0,0.0,27.270000000000014,27.269999999999985,27.27,27.27,27.269999999999985,1.4210854715202004e-14,0.0,10.71,10.13,10.440000000000001,10.46,10.13,0.2156385865284784,-0.19333333333333336
1 -> 2,0.1971590000000001,0.19715899999999992,0.19715900000000003,0.19715900000000003,0.1971590000000001,8.554842949272357e-17,1.850371707708594e-17,85.0,85.0,85.0,85.0,85.0,0.0,0.0,27.270000000000014,27.269999999999985,27.27,27.27,27.269999999999985,1.4210854715202004e-14,0.0,9.83,7.89,8.9875,9.115,7.89,0.7302182892806782,-0.6466666666666668
1 -> 2,0.1971590000000001,0.19715899999999992,0.19715900000000003,0.19715900000000003,0.1971590000000001,8.554842949272357e-17,1.850371707708594e-17,85.0,85.0,85.0,85.0,85.0,0.0,0.0,27.270000000000014,27.269999999999985,27.27,27.27,27.269999999999985,1.4210854715202004e-14,0.0,9.83,7.89,8.9875,9.115,7.89,0.7302182892806782,-0.6466666666666668
1 -> 2,0.1945980000000001,0.1945979999999999,0.19459800000000002,0.19459800000000002,0.1945980000000001,9.100274040305112e-17,-9.25185853854297e-18,85.0,85.0,85.0,85.0,85.0,0.0,0.0,27.270000000000014,27.269999999999985,27.27,27.27,27.269999999999985,1.4210854715202004e-14,0.0,6.58,1.01,3.865,3.9350000000000005,1.01,2.085335704389104,-1.8566666666666667
1 -> 2,0.1945980000000001,0.1945979999999999,0.19459800000000002,0.19459800000000002,0.1945980000000001,9.100274040305112e-17,-9.25185853854297e-18,85.0,85.0,85.0,85.0,85.0,0.0,0.0,27.270000000000014,27.269999999999985,27.27,27.27,27.269999999999985,1.4210854715202004e-14,0.0,6.58,1.01,3.865,3.9350000000000005,1.01,2.085335704389104,-1.8566666666666667
1 -> 2,0.1945980000000001,0.1945979999999999,0.19459800000000002,0.19459800000000002,0.1945980000000001,9.100274040305112e-17,-9.25185853854297e-18,85.0,85.0,85.0,85.0,85.0,0.0,0.0,27.270000000000014,27.269999999999985,27.27,27.27,27.269999999999985,1.4210854715202004e-14,0.0,-0.82,-5.42,-3.1525,-3.185,-5.42,1.7098446566866827,-1.5333333333333332
1 -> 2,0.1945980000000001,0.1945979999999999,0.19459800000000002,0.19459800000000002,0.1945980000000001,9.100274040305112e-17,-9.25185853854297e-18,85.0,85.0,85.0,85.0,85.0,0.0,0.0,27.270000000000014,27.269999999999985,27.27,27.27,27.269999999999985,1.4210854715202004e-14,0.0,-0.82,-5.42,-3.1525,-3.185,-5.42,1.7098446566866827,-1.5333333333333332
1 -> 2,0.1945980000000001,0.1945979999999999,0.19459800000000002,0.19459800000000002,0.1945980000000001,9.100274040305112e-17,-9.25185853854297e-18,85.0,85.0,85.0,85.0,85.0,0.0,0.0,27.270000000000014,27.269999999999985,27.27,27.27,27.269999999999985,1.4210854715202004e-14,0.0,-7.03,-12.92,-9.895,-9.815000000000001,-12.92,2.197276723583081,-1.9633333333333332
1 -> 2,0.1945980000000001,0.1945979999999999,0.19459800000000002,0.19459800000000002,0.1945980000000001,9.100274040305112e-17,-9.25185853854297e-18,85.0,85.0,85.0,85.0,85.0,0.0,0.0,27.270000000000014,27.269999999999985,27.27,27.27,27.269999999999985,1.4210854715202004e-14,0.0,-7.03,-12.92,-9.895,-9.815000000000001,-12.92,2.197276723583081,-1.9633333333333332
1 -> 2,0.1945980000000001,0.1945979999999999,0.19459800000000002,0.19459800000000002,0.1945980000000001,9.100274040305112e-17,-9.25185853854297e-18,85.0,85.0,85.0,85.0,85.0,0.0,0.0,27.270000000000014,27.269999999999985,27.27,27.27,27.269999999999985,1.4210854715202004e-14,0.0,-15.24,-23.6,-19.3375,-19.255,-23.6,3.12383078126841,-2.786666666666667
1 -> 2,0.1945980000000001,0.1945979999999999,0.19459800000000002,0.19459800000000002,0.1945980000000001,9.100274040305112e-17,-9.25185853854297e-18,85.0,85.0,85.0,85.0,85.0,0.0,0.0,27.270000000000014,27.269999999999985,27.27,27.27,27.269999999999985,1.4210854715202004e-14,0.0,-15.24,-23.6,-19.3375,-19.255,-23.6,3.12383078126841,-2.786666666666667
1 -> 2,0.19843900000000012,0.19843899999999998,0.19843900000000003,0.19843900000000003,0.19843899999999998,7.076311083754595e-17,0.0,71.5,71.5,71.5,71.5,71.5,0.0,0.0,27.310000000000013,27.30999999999998,27.309999999999995,27.309999999999995,27.30999999999998,1.6085595323533783e-14,0.0,-25.25,-27.55,-26.565,-26.73,-27.55,0.9417669563113795,0.2833333333333338
1 -> 2,0.19843900000000012,0.19843899999999998,0.19843900000000003,0.19843900000000003,0.19843899999999998,7.076311083754595e-17,0.0,71.5,71.5,71.5,71.5,71.5,0.0,0.0,27.310000000000013,27.30999999999998,27.309999999999995,27.309999999999995,27.30999999999998,1.6085595323533783e-14,0.0,-25.25,-27.55,-26.565,-26.73,-27.55,0.9417669563113795,0.2833333333333338
1 -> 2,0.19843900000000012,0.19843899999999998,0.19843900000000003,0.19843900000000003,0.19843899999999998,7.076311083754595e-17,0.0,71.5,71.5,71.5,71.5,71.5,0.0,0.0,27.310000000000013,27.30999999999998,27.309999999999995,27.309999999999995,27.30999999999998,1.6085595323533783e-14,0.0,-7.24,-21.45,-14.2325,-14.120000000000001,-21.45,5.327116363474708,4.736666666666666
1 -> 2,0.19843900000000012,0.19843899999999998,0.19843900000000003,0.19843900000000003,0.19843899999999998,7.076311083754595e-17,0.0,71.5,71.5,71.5,71.5,71.5,0.0,0.0,27.310000000000013,27.30999999999998,27.309999999999995,27.309999999999995,27.30999999999998,1.6085595323533783e-14,0.0,-7.24,-21.45,-14.2325,-14.120000000000001,-21.45,5.327116363474708,4.736666666666666
1 -> 2,0.19843900000000012,0.19843899999999998,0.19843900000000003,0.19843900000000003,0.19843899999999998,7.076311083754595e-17,0.0,71.5,71.5,71.5,71.5,71.5,0.0,0.0,27.310000000000013,27.30999999999998,27.309999999999995,27.309999999999995,27.30999999999998,1.6085595323533783e-14,0.0,1.92,-3.86,-0.7675000000000001,-0.565,-3.86,2.1488528916610368,1.9266666666666665
1 -> 2,0.19843900000000012,0.19843899999999998,0.19843900000000003,0.19843900000000003,0.19843899999999998,7.076311083754595e-17,0.0,71.5,71.5,71.5,71.5,71.5,0.0,0.0,27.310000000000013,27.30999999999998,27.309999999999995,27.309999999999995,27.30999999999998,1.6085595323533783e-14,0.0,1.92,-3.86,-0.7675000000000001,-0.565,-3.86,2.1488528916610368,1.9266666666666665
1 -> 2,0.19843900000000012,0.19843899999999998,0.19843900000000003,0.19843900000000003,0.19843899999999998,7.076311083754595e-17,0.0,71.5,71.5,71.5,71.5,71.5,0.0,0.0,27.310000000000013,27.30999999999998,27.309999999999995,27.309999999999995,27.30999999999998,1.6085595323533783e-14,0.0,8.34,3.57,6.05,6.145,3.57,1.7870226635384343,1.5899999999999999
1 -> 2,0.19843900000000012,0.19843899999999998,0.19843900000000003,0.19843900000000003,0.19843899999999998,7.076311083754595e-17,0.0,71.5,71.5,71.5,71.5,71.5,0.0,0.0,27.310000000000013,27.30999999999998,27.309999999999995,27.309999999999995,27.30999999999998,1.6085595323533783e-14,0.0,8.34,3.57,6.05,6.145,3.57,1.7870226635384343,1.5899999999999999
1 -> 2,0.1920380000000001,0.19203799999999996,0.19203800000000004,0.19203800000000004,0.1920380000000001,6.359601310784502e-17,-9.25185853854297e-18,71.5,71.5,71.5,71.5,71.5,0.0,0.0,27.310000000000013,27.30999999999998,27.309999999999995,27.309999999999995,27.30999999999998,1.6085595323533783e-14,0.0,10.99,9.32,10.18,10.205,9.32,0.6158327695080863,0.5566666666666666
1 -> 2,0.1920380000000001,0.19203799999999996,0.19203800000000004,0.19203800000000004,0.1920380000000001,6.359601310784502e-17,-9.25185853854297e-18,71.5,71.5,71.5,71.5,71.5,0.0,0.0,27.310000000000013,27.30999999999998,27.309999999999995,27.309999999999995,27.30999999999998,1.6085595323533783e-14,0.0,10.99,9.32,10.18,10.205,9.32,0.6158327695080863,0.5566666666666666
1 -> 2,0.1920380000000001,0.19203799999999996,0.19203800000000004,0.19203800000000004,0.1920380000000001,6.359601310784502e-17,-9.25185853854297e-18,71.5,71.5,71.5,71.5,71.5,0.0,0.0,27.310000000000013,27.30999999999998,27.309999999999995,27.309999999999995,27.30999999999998,1.6085595323533783e-14,0.0,14.43,11.74,13.145000000000001,13.205,11.74,1.0151970252123472,0.8966666666666665
1 -> 2,0.1920380000000001,0.19203799999999996,0.19203800000000004,0.19203800000000004,0.1920380000000001,6.359601310784502e-17,-9.25185853854297e-18,71.5,71.5,71.5,71.5,71.5,0.0,0.0,27.310000000000013,27.30999999999998,27.309999999999995,27.309999999999995,27.30999999999998,1.6085595323533783e-14,0.0,14.43,11.74,13.145000000000001,13.205,11.74,1.0151970252123472,0.8966666666666665
1 -> 2,0.1920380000000001,0.19203799999999996,0.19203800000000004,0.19203800000000004,0.1920380000000001,6.359601310784502e-17,-9.25185853854297e-18,71.5,71.5,71.5,71.5,71.5,0.0,0.0,27.310000000000013,27.30999999999998,27.309999999999995,27.309999999999995,27.30999999999998,1.6085595323533783e-14,0.0,14.57,10.19,12.7525,13.125,10.19,1.6820876166240573,-1.4600000000000002
1 -> 2,0.1920380000000001,0.19203799999999996,0.19203800000000004,0.19203800000000004,0.1920380000000001,6.359601310784502e-17,-9.25185853854297e-18,71.5,71.5,71.5,71.5,71.5,0.0,0.0,27.310000000000013,27.30999999999998,27.309999999999995,27.309999999999995,27.30999999999998,1.6085595323533783e-14,0.0,14.57,10.19,12.7525,13.125,10.19,1.6820876166240573,-1.4600000000000002
1 -> 2,0.1920380000000001,0.19203799999999996,0.19203800000000004,0.19203800000000004,0.1920380000000001,6.359601310784502e-17,-9.25185853854297e-18,71.5,71.5,71.5,71.5,71.5,0.0,0.0,27.310000000000013,27.30999999999998,27.309999999999995,27.309999999999995,27.30999999999998,1.6085595323533783e-14,0.0,7.74,1.21,4.365,4.255,1.21,2.435328519933194,-2.1766666666666667
1 -> 2,0.1920380000000001,0.19203799999999996,0.19203800000000004,0.19203800000000004,0.1920380000000001,6.359601310784502e-17,-9.25185853854297e-18,71.5,71.5,71.5,71.5,71.5,0.0,0.0,27.310000000000013,27.30999999999998,27.309999999999995,27.309999999999995,27.30999999999998,1.6085595323533783e-14,0.0,7.74,1.21,4.365,4.255,1.21,2.435328519933194,-2.1766666666666667
1 -> 2,0.1971590000000001,0.19715899999999992,0.19715900000000003,0.19715900000000003,0.1971590000000001,8.554842949272357e-17,1.850371707708594e-17,71.5,71.5,71.5,71.5,71.5,0.0,0.0,27.310000000000013,27.30999999999998,27.309999999999995,27.309999999999995,27.30999999999998,1.6085595323533783e-14,0.0,-0.68,-6.27,-3.5349999999999997,-3.5949999999999998,-6.27,2.0917038509311014,-1.8633333333333333
1 -> 2,0.1971590000000001,0.19715899999999992,0.19715900000000003,0.19715900000000003,0.1971590000000001,8.554842949272357e-17,1.850371707708594e-17,71.5,71.5,71.5,71.5,71.5,0.0,0.0,27.310000000000013,27.30999999999998,27.309999999999995,27.309999999999995,27.30999999999998,1.6085595323533783e-14,0.0,-0.68,-6.27,-3.5349999999999997,-3.5949999999999998,-6.27,2.0917038509311014,-1.8633333333333333
1 -> 2,0.1971590000000001,0.19715899999999992,0.19715900000000003,0.19715900000000003,0.1971590000000001,8.554842949272357e-17,1.850371707708594e-17,71.5,71.5,71.5,71.5,71.5,0.0,0.0,27.310000000000013,27.30999999999998,27.309999999999995,27.309999999999995,27.30999999999998,1.6085595323533783e-14,0.0,-7.53,-8.67,-8.23,-8.36,-8.67,0.43491378455965257,-0.3799999999999999
1 -> 2,0.1971590000000001,0.19715899999999992,0.19715900000000003,0.19715900000000003,0.1971590000000001,8.554842949272357e-17,1.850371707708594e-17,71.5,71.5,71.5,71.5,71.5,0.0,0.0,27.310000000000013,27.30999999999998,27.309999999999995,27.309999999999995,27.30999999999998,1.6085595323533783e-14,0.0,-7.53,-8.67,-8.23,-8.36,-8.67,0.43491378455965257,-0.3799999999999999
1 -> 2,0.1971590000000001,0.19715899999999992,0.19715900000000003,0.19715900000000003,0.1971590000000001,8.554842949272357e-17,1.850371707708594e-17,71.5,71.5,71.5,71.5,71.5,0.0,0.0,27.310000000000013,27.30999999999998,27.309999999999995,27.309999999999995,27.30999999999998,1.6085595323533783e-14,0.0,-9.1,-13.43,-11.0125,-10.76,-13.43,1.6374274793101526,-1.4433333333333334
1 -> 2,0.1971590000000001,0.19715899999999992,0.19715900000000003,0.19715900000000003,0.1971590000000001,8.554842949272357e-17,1.850371707708594e-17,71.5,71.5,71.5,71.5,71.5,0.0,0.0,27.310000000000013,27.30999999999998,27.309999999999995,27.309999999999995,27.30999999999998,1.6085595323533783e-14,0.0,-9.1,-13.43,-11.0125,-10.76,-13.43,1.6374274793101526,-1.4433333333333334
1 -> 2,0.1971590000000001,0.19715899999999992,0.19715900000000003,0.19715900000000003,0.1971590000000001,8.554842949272357e-17,1.850371707708594e-17,71.5,71.5,71.5,71.5,71.5,0.0,0.0,27.310000000000013,27.30999999999998,27.309999999999995,27.309999999999995,27.30999999999998,1.6085595323533783e-14,0.0,-15.65,-22.98,-19.2875,-19.259999999999998,-22.98,2.7359950200978074,-2.4433333333333334
1 -> 2,0.1971590000000001,0.19715899999999992,0.19715900000000003,0.19715900000000003,0.1971590000000001,8.554842949272357e-17,1.850371707708594e-17,71.5,71.5,71.5,71.5,71.5,0.0,0.0,27.310000000000013,27.30999999999998,27.309999999999995,27.309999999999995,27.30999999999998,1.6085595323533783e-14,0.0,-15.65,-22.98,-19.2875,-19.259999999999998,-22.98,2.7359950200978074,-2.4433333333333334
1 -> 2,0.2035600000000001,0.20355999999999994,0.20356000000000002,0.20356000000000002,0.20355999999999994,8.326672684688674e-17,0.0,71.5,71.5,71.5,71.5,71.5,0.0,0.0,27.310000000000013,27.30999999999998,27.309999999999995,27.309999999999995,27.30999999999998,1.6085595323533783e-14,0.0,-25.28,-27.49,-26.4975,-26.61,-27.49,0.8316361884862868,-0.3199999999999991
1 -> 2,0.2035600000000001,0.20355999999999994,0.20356000000000002,0.20356000000000002,0.20355999999999994,8.326672684688674e-17,0.0,71.5,71.5,71.5,71.5,71.5,0.0,0.0,27.310000000000013,27.30999999999998,27.309999999999995,27.309999999999995,27.30999999999998,1.6085595323533783e-14,0.0,-25.28,-27.49,-26.4975,-26.61,-27.49,0.8316361884862868,-0.3199999999999991
1 -> 2,0.2035600000000001,0.20355999999999994,0.20356000000000002,0.20356000000000002,0.20355999999999994,8.326672684688674e-17,0.0,71.5,71.5,71.5,71.5,71.5,0.0,0.0,27.310000000000013,27.30999999999998,27.309999999999995,27.309999999999995,27.30999999999998,1.6085595323533783e-14,0.0,-4.51,-22.9,-14.062499999999998,-14.419999999999998,-22.9,6.900599158768752,6.13
1 -> 2,0.2035600000000001,0.20355999999999994,0.20356000000000002,0.20356000000000002,0.20355999999999994,8.326672684688674e-17,0.0,71.5,71.5,71.5,71.5,71.5,0.0,0.0,27.310000000000013,27.30999999999998,27.309999999999995,27.309999999999995,27.30999999999998,1.6085595323533783e-14,0.0,-4.51,-22.9,-14.062499999999998,-14.419999999999998,-22.9,6.900599158768752,6.13
1 -> 2,0.2035600000000001,0.20355999999999994,0.20356000000000002,0.20356000000000002,0.20355999999999994,8.326672684688674e-17,0.0,71.5,71.5,71.5,71.5,71.5,0.0,0.0,27.310000000000013,27.30999999999998,27.309999999999995,27.309999999999995,27.30999999999998,1.6085595323533783e-14,0.0,11.16,1.4,6.905,7.529999999999999,1.4,3.678352212608249,3.253333333333334
1 -> 2,0.2035600000000001,0.20355999999999994,0.20356000000000002,0.20356000000000002,0.20355999999999994,8.326672684688674e-17,0.0,71.5,71.5,71.5,71.5,71.5,0.0,0.0,27.310000000000013,27.30999999999998,27.309999999999995,27.309999999999995,27.30999999999998,1.6085595323533783e-14,0.0,11.16,1.4,6.905,7.529999999999999,1.4,3.678352212608249,3.253333333333334
1 -> 2,0.2035600000000001,0.20355999999999994,0.20356000000000002,0.20356000000000002,0.20355999999999994,8.326672684688674e-17,0.0,71.5,71.5,71.5,71.5,71.5,0.0,0.0,27.310000000000013,27.30999999999998,27.309999999999995,27.309999999999995,27.30999999999998,1.6085595323533783e-14,0.0,15.83,12.64,14.3325,14.43,12.64,1.1969831870164258,1.0633333333333332
1 -> 2,0.2035600000000001,0.20355999999999994,0.20356000000000002,0.20356000000000002,0.20355999999999994,8.326672684688674e-17,0.0,71.5,71.5,71.5,71.5,71.5,0.0,0.0,27.310000000000013,27.30999999999998,27.309999999999995,27.309999999999995,27.30999999999998,1.6085595323533783e-14,0.0,15.83,12.64,14.3325,14.43,12.64,1.1969831870164258,1.0633333333333332
1 -> 2,0.1933180000000001,0.193318,0.19331800000000005,0.19331800000000005,0.193318,5.551115123125783e-17,0.0,67.0,67.0,67.0,67.0,67.0,0.0,0.0,27.290000000000013,27.289999999999992,27.290000000000006,27.290000000000006,27.290000000000013,1.020439314654103e-14,-1.1842378929335002e-15,16.34,15.74,16.1175,16.195,15.74,0.2356241710860748,-0.183333333333333
1 -> 2,0.1933180000000001,0.193318,0.19331800000000005,0.19331800000000005,0.193318,5.551115123125783e-17,0.0,67.0,67.0,67.0,67.0,67.0,0.0,0.0,27.290000000000013,27.289999999999992,27.290000000000006,27.290000000000006,27.290000000000013,1.020439314654103e-14,-1.1842378929335002e-15,16.34,15.74,16.1175,16.195,15.74,0.2356241710860748,-0.183333333333333
1 -> 2,0.1933180000000001,0.193318,0.19331800000000005,0.19331800000000005,0.193318,5.551115123125783e-17,0.0,67.0,67.0,67.0,67.0,67.0,0.0,0.0,27.290000000000013,27.289999999999992,27.290000000000006,27.290000000000006,27.290000000000013,1.020439314654103e-14,-1.1842378929335002e-15,15.36,13.59,14.5775,14.68,13.59,0.6643182595714195,-0.5899999999999999
1 -> 2,0.1933180000000001,0.193318,0.19331800000000005,0.19331800000000005,0.193318,5.551115123125783e-17,0.0,67.0,67.0,67.0,67.0,67.0,0.0,0.0,27.290000000000013,27.289999999999992,27.290000000000006,27.290000000000006,27.290000000000013,1.020439314654103e-14,-1.1842378929335002e-15,15.36,13.59,14.5775,14.68,13.59,0.6643182595714195,-0.5899999999999999
1 -> 2,0.1933180000000001,0.193318,0.19331800000000005,0.19331800000000005,0.193318,5.551115123125783e-17,0.0,67.0,67.0,67.0,67.0,67.0,0.0,0.0,27.290000000000013,27.289999999999992,27.290000000000006,27.290000000000006,27.290000000000013,1.020439314654103e-14,-1.1842378929335002e-15,12.55,9.52,10.965,10.895,9.52,1.1359247334220701,-1.0100000000000005
1 -> 2,0.1933180000000001,0.193318,0.19331800000000005,0.19331800000000005,0.193318,5.551115123125783e-17,0.0,67.0,67.0,67.0,67.0,67.0,0.0,0.0,27.290000000000013,27.289999999999992,27.290000000000006,27.290000000000006,27.290000000000013,1.020439314654103e-14,-1.1842378929335002e-15,12.55,9.52,10.965,10.895,9.52,1.1359247334220701,-1.0100000000000005
1 -> 2,0.1933180000000001,0.193318,0.19331800000000005,0.19331800000000005,0.193318,5.551115123125783e-17,0.0,67.0,67.0,67.0,67.0,67.0,0.0,0.0,27.290000000000013,27.289999999999992,27.290000000000006,27.290000000000006,27.290000000000013,1.020439314654103e-14,-1.1842378929335002e-15,8.86,5.57,7.445,7.675,5.57,1.2383153879363686,-1.0966666666666665
1 -> 2,0.1933180000000001,0.193318,0.19331800000000005,0.19331800000000005,0.193318,5.551115123125783e-17,0.0,67.0,67.0,67.0,67.0,67.0,0.0,0.0,27.290000000000013,27.289999999999992,27.290000000000006,27.290000000000006,27.290000000000013,1.020439314654103e-14,-1.1842378929335002e-15,8.86,5.57,7.445,7.675,5.57,1.2383153879363686,-1.0966666666666665
1 -> 2,0.1958790000000001,0.19587899999999994,0.19587900000000005,0.19587900000000005,0.1958790000000001,7.343435057440258e-17,1.850371707708594e-17,67.0,67.0,67.0,67.0,67.0,0.0,0.0,27.290000000000013,27.289999999999992,27.290000000000006,27.290000000000006,27.290000000000013,1.020439314654103e-14,-1.1842378929335002e-15,3.28,-5.45,-1.0750000000000002,-1.065,-5.45,3.26715855140212,-2.91
1 -> 2,0.1958790000000001,0.19587899999999994,0.19587900000000005,0.19587900000000005,0.1958790000000001,7.343435057440258e-17,1.850371707708594e-17,67.0,67.0,67.0,67.0,67.0,0.0,0.0,27.290000000000013,27.289999999999992,27.290000000000006,27.290000000000006,27.290000000000013,1.020439314654103e-14,-1.1842378929335002e-15,3.28,-5.45,-1.0750000000000002,-1.065,-5.45,3.26715855140212,-2.91
1 -> 2,0.1958790000000001,0.19587899999999994,0.19587900000000005,0.19587900000000005,0.1958790000000001,7.343435057440258e-17,1.850371707708594e-17,67.0,67.0,67.0,67.0,67.0,0.0,0.0,27.290000000000013,27.289999999999992,27.290000000000006,27.290000000000006,27.290000000000013,1.020439314654103e-14,-1.1842378929335002e-15,-7.95,-13.81,-10.91,-10.94,-13.81,2.1738905216224667,-1.9533333333333334
1 -> 2,0.1958790000000001,0.19587899999999994,0.19587900000000005,0.19587900000000005,0.1958790000000001,7.343435057440258e-17,1.850371707708594e-17,67.0,67.0,67.0,67.0,67.0,0.0,0.0,27.290000000000013,27.289999999999992,27.290000000000006,27.290000000000006,27.290000000000013,1.020439314654103e-14,-1.1842378929335002e-15,-7.95,-13.81,-10.91,-10.94,-13.81,2.1738905216224667,-1.9533333333333334
1 -> 2,0.1958790000000001,0.19587899999999994,0.19587900000000005,0.19587900000000005,0.1958790000000001,7.343435057440258e-17,1.850371707708594e-17,67.0,67.0,67.0,67.0,67.0,0.0,0.0,27.290000000000013,27.289999999999992,27.290000000000006,27.290000000000006,27.290000000000013,1.020439314654103e-14,-1.1842378929335002e-15,-16.08,-24.65,-20.275,-20.185,-24.65,3.203408341126682,-2.856666666666667
1 -> 2,0.1958790000000001,0.19587899999999994,0.19587900000000005,0.19587900000000005,0.1958790000000001,7.343435057440258e-17,1.850371707708594e-17,67.0,67.0,67.0,67.0,67.0,0.0,0.0,27.290000000000013,27.289999999999992,27.290000000000006,27.290000000000006,27.290000000000013,1.020439314654103e-14,-1.1842378929335002e-15,-16.08,-24.65,-20.275,-20.185,-24.65,3.203408341126682,-2.856666666666667
1 -> 2,0.1958790000000001,0.19587899999999994,0.19587900000000005,0.19587900000000005,0.1958790000000001,7.343435057440258e-17,1.850371707708594e-17,67.0,67.0,67.0,67.0,67.0,0.0,0.0,27.290000000000013,27.289999999999992,27.290000000000006,27.290000000000006,27.290000000000013,1.020439314654103e-14,-1.1842378929335002e-15,-27.55,-36.44,-31.8875,-31.78,-36.44,3.305657082941301,-2.9633333333333325
1 -> 2,0.1958790000000001,0.19587899999999994,0.19587900000000005,0.19587900000000005,0.1958790000000001,7.343435057440258e-17,1.850371707708594e-17,67.0,67.0,67.0,67.0,67.0,0.0,0.0,27.290000000000013,27.289999999999992,27.290000000000006,27.290000000000006,27.290000000000013,1.020439314654103e-14,-1.1842378929335002e-15,-27.55,-36.44,-31.8875,-31.78,-36.44,3.305657082941301,-2.9633333333333325
1 -> 2,0.1920380000000001,0.19203799999999996,0.19203800000000004,0.19203800000000004,0.1920380000000001,6.359601310784502e-17,-9.25185853854297e-18,67.0,67.0,67.0,67.0,67.0,0.0,0.0,27.290000000000013,27.289999999999992,27.290000000000006,27.290000000000006,27.290000000000013,1.020439314654103e-14,-1.1842378929335002e-15,-40.24,-55.03,-47.4225,-47.21,-55.03,5.526139588356414,-4.93
1 -> 2,0.1920380000000001,0.19203799999999996,0.19203800000000004,0.19203800000000004,0.1920380000000001,6.359601310784502e-17,-9.25185853854297e-18,67.0,67.0,67.0,67.0,67.0,0.0,0.0,27.290000000000013,27.289999999999992,27.290000000000006,27.290000000000006,27.290000000000013,1.020439314654103e-14,-1.1842378929335002e-15,-40.24,-55.03,-47.4225,-47.21,-55.03,5.526139588356414,-4.93
1 -> 2,0.1920380000000001,0.19203799999999996,0.19203800000000004,0.19203800000000004,0.1920380000000001,6.359601310784502e-17,-9.25185853854297e-18,67.0,67.0,67.0,67.0,67.0,0.0,0.0,27.290000000000013,27.289999999999992,27.290000000000006,27.290000000000006,27.290000000000013,1.020439314654103e-14,-1.1842378929335002e-15,-60.23,-69.66,-65.6925,-66.44,-69.66,3.6127785359747686,-3.143333333333333
1 -> 2,0.1920380000000001,0.19203799999999996,0.19203800000000004,0.19203800000000004,0.1920380000000001,6.359601310784502e-17,-9.25185853854297e-18,67.0,67.0,67.0,67.0,67.0,0.0,0.0,27.290000000000013,27.289999999999992,27.290000000000006,27.290000000000006,27.290000000000013,1.020439314654103e-14,-1.1842378929335002e-15,-60.23,-69.66,-65.6925,-66.44,-69.66,3.6127785359747686,-3.143333333333333
1 -> 2,0.1920380000000001,0.19203799999999996,0.19203800000000004,0.19203800000000004,0.1920380000000001,6.359601310784502e-17,-9.25185853854297e-18,67.0,67.0,67.0,67.0,67.0,0.0,0.0,27.290000000000013,27.289999999999992,27.290000000000006,27.290000000000006,27.290000000000013,1.020439314654103e-14,-1.1842378929335002e-15,-57.39,-69.11,-63.837500000000006,-64.42500000000001,-69.11,4.437180270171587,3.9066666666666663
1 -> 2,0.1920380000000001,0.19203799999999996,0.19203800000000004,0.19203800000000004,0.1920380000000001,6.359601310784502e-17,-9.25185853854297e-18,67.0,67.0,67.0,67.0,67.0,0.0,0.0,27.290000000000013,27.289999999999992,27.290000000000006,27.290000000000006,27.290000000000013,1.020439314654103e-14,-1.1842378929335002e-15,-57.39,-69.11,-63.837500000000006,-64.42500000000001,-69.11,4.437180270171587,3.9066666666666663
1 -> 2,0.1920380000000001,0.19203799999999996,0.19203800000000004,0.19203800000000004,0.1920380000000001,6.359601310784502e-17,-9.25185853854297e-18,67.0,67.0,67.0,67.0,67.0,0.0,0.0,27.290000000000013,27.289999999999992,27.290000000000006,27.290000000000006,27.290000000000013,1.020439314654103e-14,-1.1842378929335002e-15,-39.86,-52.48,-46.1125,-46.055,-52.48,4.682026137261516,4.206666666666666
1 -> 2,0.1920380000000001,0.19203799999999996,0.19203800000000004,0.19203800000000004,0.1920380000000001,6.359601310784502e-17,-9.25185853854297e-18,67.0,67.0,67.0,67.0,67.0,0.0,0.0,27.290000000000013,27.289999999999992,27.290000000000006,27.290000000000006,27.290000000000013,1.020439314654103e-14,-1.1842378929335002e-15,-39.86,-52.48,-46.1125,-46.055,-52.48,4.682026137261516,4.206666666666666
1 -> 2,0.1958790000000001,0.19587899999999994,0.19587900000000005,0.19587900000000005,0.1958790000000001,7.343435057440258e-17,1.850371707708594e-17,67.0,67.0,67.0,67.0,67.0,0.0,0.0,27.290000000000013,27.289999999999992,27.290000000000006,27.290000000000006,27.290000000000013,1.020439314654103e-14,-1.1842378929335002e-15,-9.08,-34.69,-22.7275,-23.57,-34.69,9.590717843310792,8.536666666666667
1 -> 2,0.1958790000000001,0.19587899999999994,0.19587900000000005,0.19587900000000005,0.1958790000000001,7.343435057440258e-17,1.850371707708594e-17,67.0,67.0,67.0,67.0,67.0,0.0,0.0,27.290000000000013,27.289999999999992,27.290000000000006,27.290000000000006,27.290000000000013,1.020439314654103e-14,-1.1842378929335002e-15,-9.08,-34.69,-22.7275,-23.57,-34.69,9.590717843310792,8.536666666666667
1 -> 2,0.1958790000000001,0.19587899999999994,0.19587900000000005,0.19587900000000005,0.1958790000000001,7.343435057440258e-17,1.850371707708594e-17,67.0,67.0,67.0,67.0,67.0,0.0,0.0,27.290000000000013,27.289999999999992,27.290000000000006,27.290000000000006,27.290000000000013,1.020439314654103e-14,-1.1842378929335002e-15,36.34,2.09,19.317500000000003,19.42,2.09,12.77623257263267,11.416666666666666
1 -> 2,0.1958790000000001,0.19587899999999994,0.19587900000000005,0.19587900000000005,0.1958790000000001,7.343435057440258e-17,1.850371707708594e-17,67.0,67.0,67.0,67.0,67.0,0.0,0.0,27.290000000000013,27.289999999999992,27.290000000000006,27.290000000000006,27.290000000000013,1.020439314654103e-14,-1.1842378929335002e-15,36.34,2.09,19.317500000000003,19.42,2.09,12.77623257263267,11.416666666666666
1 -> 2,0.1958790000000001,0.19587899999999994,0.19587900000000005,0.19587900000000005,0.1958790000000001,7.343435057440258e-17,1.850371707708594e-17,67.0,67.0,67.0,67.0,67.0,0.0,0.0,27.290000000000013,27.289999999999992,27.290000000000006,27.290000000000006,27.290000000000013,1.020439314654103e-14,-1.1842378929335002e-15,71.84,46.89,60.0575,60.75,46.89,9.33565309713252,8.316666666666668
1 -> 2,0.1958790000000001,0.19587899999999994,0.19587900000000005,0.19587900000000005,0.1958790000000001,7.343435057440258e-17,1.850371707708594e-17,67.0,67.0,67.0,67.0,67.0,0.0,0.0,27.290000000000013,27.289999999999992,27.290000000000006,27.290000000000006,27.290000000000013,1.020439314654103e-14,-1.1842378929335002e-15,71.84,46.89,60.0575,60.75,46.89,9.33565309713252,8.316666666666668
1 -> 2,0.1958790000000001,0.19587899999999994,0.19587900000000005,0.19587900000000005,0.1958790000000001,7.343435057440258e-17,1.850371707708594e-17,67.0,67.0,67.0,67.0,67.0,0.0,0.0,27.290000000000013,27.289999999999992,27.290000000000006,27.290000000000006,27.290000000000013,1.020439314654103e-14,-1.1842378929335002e-15,81.82,76.97,80.1925,80.99000000000001,76.97,1.956621769785872,1.576666666666668
1 -> 2,0.1958790000000001,0.19587899999999994,0.19587900000000005,0.19587900000000005,0.1958790000000001,7.343435057440258e-17,1.850371707708594e-17,67.0,67.0,67.0,67.0,67.0,0.0,0.0,27.290000000000013,27.289999999999992,27.290000000000006,27.290000000000006,27.290000000000013,1.020439314654103e-14,-1.1842378929335002e-15,81.82,76.97,80.1925,80.99000000000001,76.97,1.956621769785872,1.576666666666668
1 -> 2,0.1920380000000001,0.19203799999999996,0.19203800000000004,0.19203800000000004,0.1920380000000001,6.359601310784502e-17,-9.25185853854297e-18,64.5,64.5,64.5,64.5,64.5,0.0,0.0,27.290000000000013,27.289999999999992,27.290000000000006,27.290000000000006,27.290000000000013,1.020439314654103e-14,-1.1842378929335002e-15,80.08,68.36,74.6825,75.14500000000001,68.36,4.401558672788537,-3.9066666666666663
1 -> 2,0.1920380000000001,0.19203799999999996,0.19203800000000004,0.19203800000000004,0.1920380000000001,6.359601310784502e-17,-9.25185853854297e-18,64.5,64.5,64.5,64.5,64.5,0.0,0.0,27.290000000000013,27.289999999999992,27.290000000000006,27.290000000000006,27.290000000000013,1.020439314654103e-14,-1.1842378929335002e-15,80.08,68.36,74.6825,75.14500000000001,68.36,4.401558672788537,-3.9066666666666663
1 -> 2,0.1920380000000001,0.19203799999999996,0.19203800000000004,0.19203800000000004,0.1920380000000001,6.359601310784502e-17,-9.25185853854297e-18,64.5,64.5,64.5,64.5,64.5,0.0,0.0,27.290000000000013,27.289999999999992,27.290000000000006,27.290000000000006,27.290000000000013,1.020439314654103e-14,-1.1842378929335002e-15,63.07,46.38,54.72,54.715,46.38,6.225234935325735,-5.563333333333333
1 -> 2,0.1920380000000001,0.19203799999999996,0.19203800000000004,0.19203800000000004,0.1920380000000001,6.359601310784502e-17,-9.25185853854297e-18,64.5,64.5,64.5,64.5,64.5,0.0,0.0,27.290000000000013,27.289999999999992,27.290000000000006,27.290000000000006,27.290000000000013,1.020439314654103e-14,-1.1842378929335002e-15,63.07,46.38,54.72,54.715,46.38,6.225234935325735,-5.563333333333333
1 -> 2,0.1920380000000001,0.19203799999999996,0.19203800000000004,0.19203800000000004,0.1920380000000001,6.359601310784502e-17,-9.25185853854297e-18,64.5,64.5,64.5,64.5,64.5,0.0,0.0,27.290000000000013,27.289999999999992,27.290000000000006,27.290000000000006,27.290000000000013,1.020439314654103e-14,-1.1842378929335002e-15,41.06,26.87,33.81,33.655,26.87,5.290571802744956,-4.73
1 -> 2,0.1920380000000001,0.19203799999999996,0.19203800000000004,0.19203800000000004,0.1920380000000001,6.359601310784502e-17,-9.25185853854297e-18,64.5,64.5,64.5,64.5,64.5,0.0,0.0,27.290000000000013,27.289999999999992,27.290000000000006,27.290000000000006,27.290000000000013,1.020439314654103e-14,-1.1842378929335002e-15,41.06,26.87,33.81,33.655,26.87,5.290571802744956,-4.73
1 -> 2,0.1920380000000001,0.19203799999999996,0.19203800000000004,0.19203800000000004,0.1920380000000001,6.359601310784502e-17,-9.25185853854297e-18,64.5,64.5,64.5,64.5,64.5,0.0,0.0,27.290000000000013,27.289999999999992,27.290000000000006,27.290000000000006,27.290000000000013,1.020439314654103e-14,-1.1842378929335002e-15,22.72,11.86,17.1525,17.015,11.86,4.050736815691683,-3.6199999999999997
1 -> 2,0.1920380000000001,0.19203799999999996,0.19203800000000004,0.19203800000000004,0.1920380000000001,6.359601310784502e-17,-9.25185853854297e-18,64.5,64.5,64.5,64.5,64.5,0.0,0.0,27.290000000000013,27.289999999999992,27.290000000000006,27.290000000000006,27.290000000000013,1.020439314654103e-14,-1.1842378929335002e-15,22.72,11.86,17.1525,17.015,11.86,4.050736815691683,-3.6199999999999997
1 -> 2,0.1971590000000001,0.19715899999999992,0.19715900000000003,0.19715900000000003,0.1971590000000001,8.554842949272357e-17,1.850371707708594e-17,64.5,64.5,64.5,64.5,64.5,0.0,0.0,27.290000000000013,27.289999999999992,27.290000000000006,27.290000000000006,27.290000000000013,1.020439314654103e-14,-1.1842378929335002e-15,8.83,0.79,4.78,4.75,0.79,2.9898411329032184,-2.68
1 -> 2,0.1971590000000001,0.19715899999999992,0.19715900000000003,0.19715900000000003,0.1971590000000001,8.554842949272357e-17,1.850371707708594e-17,64.5,64.5,64.5,64.5,64.5,0.0,0.0,27.290000000000013,27.289999999999992,27.290000000000006,27.290000000000006,27.290000000000013,1.020439314654103e-14,-1.1842378929335002e-15,8.83,0.79,4.78,4.75,0.79,2.9898411329032184,-2.68
1 -> 2,0.1971590000000001,0.19715899999999992,0.19715900000000003,0.19715900000000003,0.1971590000000001,8.554842949272357e-17,1.850371707708594e-17,64.5,64.5,64.5,64.5,64.5,0.0,0.0,27.290000000000013,27.289999999999992,27.290000000000006,27.290000000000006,27.290000000000013,1.020439314654103e-14,-1.1842378929335002e-15,-2.08,-13.49,-7.522500000000001,-7.26,-13.49,4.259978726472704,-3.8033333333333332
1 -> 2,0.1971590000000001,0.19715899999999992,0.19715900000000003,0.19715900000000003,0.1971590000000001,8.554842949272357e-17,1.850371707708594e-17,64.5,64.5,64.5,64.5,64.5,0.0,0.0,27.290000000000013,27.289999999999992,27.290000000000006,27.290000000000006,27.290000000000013,1.020439314654103e-14,-1.1842378929335002e-15,-2.08,-13.49,-7.522500000000001,-7.26,-13.49,4.259978726472704,-3.8033333333333332
1 -> 2,0.1971590000000001,0.19715899999999992,0.19715900000000003,0.19715900000000003,0.1971590000000001,8.554842949272357e-17,1.850371707708594e-17,64.5,64.5,64.5,64.5,64.5,0.0,0.0,27.290000000000013,27.289999999999992,27.290000000000006,27.290000000000006,27.290000000000013,1.020439314654103e-14,-1.1842378929335002e-15,-18.17,-29.03,-24.1475,-24.695,-29.03,4.112702122692573,-3.6199999999999997
1 -> 2,0.1971590000000001,0.19715899999999992,0.19715900000000003,0.19715900000000003,0.1971590000000001,8.554842949272357e-17,1.850371707708594e-17,64.5,64.5,64.5,64.5,64.5,0.0,0.0,27.290000000000013,27.289999999999992,27.290000000000006,27.290000000000006,27.290000000000013,1.020439314654103e-14,-1.1842378929335002e-15,-18.17,-29.03,-24.1475,-24.695,-29.03,4.112702122692573,-3.6199999999999997
1 -> 2,0.1971590000000001,0.19715899999999992,0.19715900000000003,0.19715900000000003,0.1971590000000001,8.554842949272357e-17,1.850371707708594e-17,64.5,64.5,64.5,64.5,64.5,0.0,0.0,27.290000000000013,27.289999999999992,27.290000000000006,27.290000000000006,27.290000000000013,1.020439314654103e-14,-1.1842378929335002e-15,-17.19,-29.33,-24.18,-25.1,-29.33,4.643129332680707,4.046666666666666
1 -> 2,0.1971590000000001,0.19715899999999992,0.19715900000000003,0.19715900000000003,0.1971590000000001,8.554842949272357e-17,1.850371707708594e-17,64.5,64.5,64.5,64.5,64.5,0.0,0.0,27.290000000000013,27.289999999999992,27.290000000000006,27.290000000000006,27.290000000000013,1.020439314654103e-14,-1.1842378929335002e-15,-17.19,-29.33,-24.18,-25.1,-29.33,4.643129332680707,4.046666666666666
1 -> 2,0.1920380000000001,0.19203799999999996,0.19203800000000004,0.19203800000000004,0.1920380000000001,6.359601310784502e-17,-9.25185853854297e-18,64.5,64.5,64.5,64.5,64.5,0.0,0.0,27.290000000000013,27.289999999999992,27.290000000000006,27.290000000000006,27.290000000000013,1.020439314654103e-14,-1.1842378929335002e-15,3.8,-10.84,-2.9624999999999995,-2.405,-10.84,5.492250790887102,4.88
1 -> 2,0.1920380000000001,0.19203799999999996,0.19203800000000004,0.19203800000000004,0.1920380000000001,6.359601310784502e-17,-9.25185853854297e-18,64.5,64.5,64.5,64.5,64.5,0.0,0.0,27.290000000000013,27.289999999999992,27.290000000000006,27.290000000000006,27.290000000000013,1.020439314654103e-14,-1.1842378929335002e-15,3.8,-10.84,-2.9624999999999995,-2.405,-10.84,5.492250790887102,4.88
1 -> 2,0.1920380000000001,0.19203799999999996,0.19203800000000004,0.19203800000000004,0.1920380000000001,6.359601310784502e-17,-9.25185853854297e-18,64.5,64.5,64.5,64.5,64.5,0.0,0.0,27.290000000000013,27.289999999999992,27.290000000000006,27.290000000000006,27.290000000000013,1.020439314654103e-14,-1.1842378929335002e-15,11.58,6.46,9.1425,9.265,6.46,1.905811834888219,1.7066666666666668
1 -> 2,0.1920380000000001,0.19203799999999996,0.19203800000000004,0.19203800000000004,0.1920380000000001,6.359601310784502e-17,-9.25185853854297e-18,64.5,64.5,64.5,64.5,64.5,0.0,0.0,27.290000000000013,27.289999999999992,27.290000000000006,27.290000000000006,27.290000000000013,1.020439314654103e-14,-1.1842378929335002e-15,11.58,6.46,9.1425,9.265,6.46,1.905811834888219,1.7066666666666668
1 -> 2,0.1920380000000001,0.19203799999999996,0.19203800000000004,0.19203800000000004,0.1920380000000001,6.359601310784502e-17,-9.25185853854297e-18,64.5,64.5,64.5,64.5,64.5,0.0,0.0,27.290000000000013,27.289999999999992,27.290000000000006,27.290000000000006,27.290000000000013,1.020439314654103e-14,-1.1842378929335002e-15,15.77,12.96,14.4875,14.61,12.96,1.054736341461694,0.9366666666666662
1 -> 2,0.1920380000000001,0.19203799999999996,0.19203800000000004,0.19203800000000004,0.1920380000000001,6.359601310784502e-17,-9.25185853854297e-18,64.5,64.5,64.5,64.5,64.5,0.0,0.0,27.290000000000013,27.289999999999992,27.290000000000006,27.290000000000006,27.290000000000013,1.020439314654103e-14,-1.1842378929335002e-15,15.77,12.96,14.4875,14.61,12.96,1.054736341461694,0.9366666666666662
1 -> 2,0.1920380000000001,0.19203799999999996,0.19203800000000004,0.19203800000000004,0.1920380000000001,6.359601310784502e-17,-9.25185853854297e-18,64.5,64.5,64.5,64.5,64.5,0.0,0.0,27.290000000000013,27.289999999999992,27.290000000000006,27.290000000000006,27.290000000000013,1.020439314654103e-14,-1.1842378929335002e-15,16.74,16.27,16.5625,16.62,16.27,0.17640507362318117,0.12333333333333367
1 -> 2,0.1920380000000001,0.19203799999999996,0.19203800000000004,0.19203800000000004,0.1920380000000001,6.359601310784502e-17,-9.25185853854297e-18,64.5,64.5,64.5,64.5,64.5,0.0,0.0,27.290000000000013,27.289999999999992,27.290000000000006,27.290000000000006,27.290000000000013,1.020439314654103e-14,-1.1842378929335002e-15,16.74,16.27,16.5625,16.62,16.27,0.17640507362318117,0.12333333333333367
1 -> 2,0.1958790000000001,0.19587899999999994,0.19587900000000005,0.19587900000000005,0.1958790000000001,7.343435057440258e-17,1.850371707708594e-17,64.5,64.5,64.5,64.5,64.5,0.0,0.0,27.290000000000013,27.289999999999992,27.290000000000006,27.290000000000006,27.290000000000013,1.020439314654103e-14,-1.1842378929335002e-15,16.27,14.42,15.3475,15.35,14.42,0.6944557221306481,-0.6166666666666666
1 -> 2,0.1958790000000001,0.19587899999999994,0.19587900000000005,0.19587900000000005,0.1958790000000001,7.343435057440258e-17,1.850371707708594e-17,64.5,64.5,64.5,64.5,64.5,0.0,0.0,27.290000000000013,27.289999999999992,27.290000000000006,27.290000000000006,27.290000000000013,1.020439314654103e-14,-1.1842378929335002e-15,16.27,14.42,15.3475,15.35,14.42,0.6944557221306481,-0.6166666666666666
1 -> 2,0.1958790000000001,0.19587899999999994,0.19587900000000005,0.19587900000000005,0.1958790000000001,7.343435057440258e-17,1.850371707708594e-17,64.5,64.5,64.5,64.5,64.5,0.0,0.0,27.290000000000013,27.289999999999992,27.290000000000006,27.290000000000006,27.290000000000013,1.020439314654103e-14,-1.1842378929335002e-15,13.99,13.24,13.620000000000001,13.625,13.24,0.27358728040608915,-0.25
1 -> 2,0.1958790000000001,0.19587899999999994,0.19587900000000005,0.19587900000000005,0.1958790000000001,7.343435057440258e-17,1.850371707708594e-17,64.5,64.5,64.5,64.5,64.5,0.0,0.0,27.290000000000013,27.289999999999992,27.290000000000006,27.290000000000006,27.290000000000013,1.020439314654103e-14,-1.1842378929335002e-15,13.99,13.24,13.620000000000001,13.625,13.24,0.27358728040608915,-0.25
1 -> 2,0.1958790000000001,0.19587899999999994,0.19587900000000005,0.19587900000000005,0.1958790000000001,7.343435057440258e-17,1.850371707708594e-17,64.5,64.5,64.5,64.5,64.5,0.0,0.0,27.290000000000013,27.289999999999992,27.290000000000006,27.290000000000006,27.290000000000013,1.020439314654103e-14,-1.1842378929335002e-15,12.68,8.51,10.795,10.995,8.51,1.5691159931630294,-1.39
1 -> 2,0.1958790000000001,0.19587899999999994,0.19587900000000005,0.19587900000000005,0.1958790000000001,7.343435057440258e-17,1.850371707708594e-17,64.5,64.5,64.5,64.5,64.5,0.0,0.0,27.290000000000013,27.289999999999992,27.290000000000006,27.290000000000006,27.290000000000013,1.020439314654103e-14,-1.1842378929335002e-15,12.68,8.51,10.795,10.995,8.51,1.5691159931630294,-1.39
1 -> 2,0.1958790000000001,0.19587899999999994,0.19587900000000005,0.19587900000000005,0.1958790000000001,7.343435057440258e-17,1.850371707708594e-17,64.5,64.5,64.5,64.5,64.5,0.0,0.0,27.290000000000013,27.289999999999992,27.290000000000006,27.290000000000006,27.290000000000013,1.020439314654103e-14,-1.1842378929335002e-15,6.58,1.78,4.0525,3.9250000000000003,1.78,1.7945107271900047,-1.5999999999999999
1 -> 2,0.1958790000000001,0.19587899999999994,0.19587900000000005,0.19587900000000005,0.1958790000000001,7.343435057440258e-17,1.850371707708594e-17,64.5,64.5,64.5,64.5,64.5,0.0,0.0,27.290000000000013,27.289999999999992,27.290000000000006,27.290000000000006,27.290000000000013,1.020439314654103e-14,-1.1842378929335002e-15,6.58,1.78,4.0525,3.9250000000000003,1.78,1.7945107271900047,-1.5999999999999999
1 -> 2,0.1920380000000001,0.19203799999999996,0.19203800000000004,0.19203800000000004,0.1920380000000001,6.359601310784502e-17,-9.25185853854297e-18,63.8,63.8,63.8,63.8,63.8,0.0,0.0,27.270000000000014,27.269999999999985,27.27,27.27,27.269999999999985,1.4210854715202004e-14,0.0,0.62,-3.47,-1.3325,-1.24,-3.47,1.5244732696902235,-1.3633333333333333
1 -> 2,0.1920380000000001,0.19203799999999996,0.19203800000000004,0.19203800000000004,0.1920380000000001,6.359601310784502e-17,-9.25185853854297e-18,63.8,63.8,63.8,63.8,63.8,0.0,0.0,27.270000000000014,27.269999999999985,27.27,27.27,27.269999999999985,1.4210854715202004e-14,0.0,0.62,-3.47,-1.3325,-1.24,-3.47,1.5244732696902235,-1.3633333333333333
1 -> 2,0.1920380000000001,0.19203799999999996,0.19203800000000004,0.19203800000000004,0.1920380000000001,6.359601310784502e-17,-9.25185853854297e-18,63.8,63.8,63.8,63.8,63.8,0.0,0.0,27.270000000000014,27.269999999999985,27.27,27.27,27.269999999999985,1.4210854715202004e-14,0.0,-5.18,-10.04,-7.675,-7.74,-10.04,1.814628061063754,-1.6199999999999999
1 -> 2,0.1920380000000001,0.19203799999999996,0.19203800000000004,0.19203800000000004,0.1920380000000001,6.359601310784502e-17,-9.25185853854297e-18,63.8,63.8,63.8,63.8,63.8,0.0,0.0,27.270000000000014,27.269999999999985,27.27,27.27,27.269999999999985,1.4210854715202004e-14,0.0,-5.18,-10.04,-7.675,-7.74,-10.04,1.814628061063754,-1.6199999999999999
1 -> 2,0.1920380000000001,0.19203799999999996,0.19203800000000004,0.19203800000000004,0.1920380000000001,6.359601310784502e-17,-9.25185853854297e-18,63.8,63.8,63.8,63.8,63.8,0.0,0.0,27.270000000000014,27.269999999999985,27.27,27.27,27.269999999999985,1.4210854715202004e-14,0.0,-11.34,-15.35,-13.25,-13.155,-15.35,1.488069218820146,-1.3366666666666667
1 -> 2,0.1920380000000001,0.19203799999999996,0.19203800000000004,0.19203800000000004,0.1920380000000001,6.359601310784502e-17,-9.25185853854297e-18,63.8,63.8,63.8,63.8,63.8,0.0,0.0,27.270000000000014,27.269999999999985,27.27,27.27,27.269999999999985,1.4210854715202004e-14,0.0,-11.34,-15.35,-13.25,-13.155,-15.35,1.488069218820146,-1.3366666666666667
1 -> 2,0.1920380000000001,0.19203799999999996,0.19203800000000004,0.19203800000000004,0.1920380000000001,6.359601310784502e-17,-9.25185853854297e-18,63.8,63.8,63.8,63.8,63.8,0.0,0.0,27.270000000000014,27.269999999999985,27.27,27.27,27.269999999999985,1.4210854715202004e-14,0.0,-17.55,-27.85,-22.5075,-22.315,-27.85,3.8635888432906524,-3.4333333333333336
1 -> 2,0.1920380000000001,0.19203799999999996,0.19203800000000004,0.19203800000000004,0.1920380000000001,6.359601310784502e-17,-9.25185853854297e-18,63.8,63.8,63.8,63.8,63.8,0.0,0.0,27.270000000000014,27.269999999999985,27.27,27.27,27.269999999999985,1.4210854715202004e-14,0.0,-17.55,-27.85,-22.5075,-22.315,-27.85,3.8635888432906524,-3.4333333333333336
1 -> 2,0.1933180000000001,0.193318,0.19331800000000005,0.19331800000000005,0.193318,5.551115123125783e-17,0.0,63.8,63.8,63.8,63.8,63.8,0.0,0.0,27.270000000000014,27.269999999999985,27.27,27.27,27.269999999999985,1.4210854715202004e-14,0.0,-27.97,-32.24,-30.5975,-31.09,-32.24,1.5962827913624837,0.9633333333333335
1 -> 2,0.1933180000000001,0.193318,0.19331800000000005,0.19331800000000005,0.193318,5.551115123125783e-17,0.0,63.8,63.8,63.8,63.8,63.8,0.0,0.0,27.270000000000014,27.269999999999985,27.27,27.27,27.269999999999985,1.4210854715202004e-14,0.0,-27.97,-32.24,-30.5975,-31.09,-32.24,1.5962827913624837,0.9633333333333335
1 -> 2,0.1933180000000001,0.193318,0.19331800000000005,0.19331800000000005,0.193318,5.551115123125783e-17,0.0,63.8,63.8,63.8,63.8,63.8,0.0,0.0,27.270000000000014,27.269999999999985,27.27,27.27,27.269999999999985,1.4210854715202004e-14,0.0,-2.93,-22.58,-12.6575,-12.56,-22.58,7.356834832317496,6.55
1 -> 2,0.1933180000000001,0.193318,0.19331800000000005,0.19331800000000005,0.193318,5.551115123125783e-17,0.0,63.8,63.8,63.8,63.8,63.8,0.0,0.0,27.270000000000014,27.269999999999985,27.27,27.27,27.269999999999985,1.4210854715202004e-14,0.0,-2.93,-22.58,-12.6575,-12.56,-22.58,7.356834832317496,6.55
1 -> 2,0.1933180000000001,0.193318,0.19331800000000005,0.19331800000000005,0.193318,5.551115123125783e-17,0.0,63.8,63.8,63.8,63.8,63.8,0.0,0.0,27.270000000000014,27.269999999999985,27.27,27.27,27.269999999999985,1.4210854715202004e-14,0.0,10.8,2.17,6.95,7.415000000000001,2.17,3.238047251044988,2.876666666666667
1 -> 2,0.1933180000000001,0.193318,0.19331800000000005,0.19331800000000005,0.193318,5.551115123125783e-17,0.0,63.8,63.8,63.8,63.8,63.8,0.0,0.0,27.270000000000014,27.269999999999985,27.27,27.27,27.269999999999985,1.4210854715202004e-14,0.0,10.8,2.17,6.95,7.415000000000001,2.17,3.238047251044988,2.876666666666667
1 -> 2,0.1933180000000001,0.193318,0.19331800000000005,0.19331800000000005,0.193318,5.551115123125783e-17,0.0,63.8,63.8,63.8,63.8,63.8,0.0,0.0,27.270000000000014,27.269999999999985,27.27,27.27,27.269999999999985,1.4210854715202004e-14,0.0,14.98,12.33,13.817499999999999,13.98,12.33,1.0027306467840704,0.8833333333333334
1 -> 2,0.1933180000000001,0.193318,0.19331800000000005,0.19331800000000005,0.193318,5.551115123125783e-17,0.0,63.8,63.8,63.8,63.8,63.8,0.0,0.0,27.270000000000014,27.269999999999985,27.27,27.27,27.269999999999985,1.4210854715202004e-14,0.0,14.98,12.33,13.817499999999999,13.98,12.33,1.0027306467840704,0.8833333333333334
1 -> 2,0.1945980000000001,0.1945979999999999,0.19459800000000002,0.19459800000000002,0.1945980000000001,9.100274040305112e-17,-9.25185853854297e-18,63.8,63.8,63.8,63.8,63.8,0.0,0.0,27.270000000000014,27.269999999999985,27.27,27.27,27.269999999999985,1.4210854715202004e-14,0.0,15.17,14.74,14.967500000000001,14.98,14.74,0.16813313177360356,-0.14333333333333323
1 -> 2,0.1945980000000001,0.1945979999999999,0.19459800000000002,0.19459800000000002,0.1945980000000001,9.100274040305112e-17,-9.25185853854297e-18,63.8,63.8,63.8,63.8,63.8,0.0,0.0,27.270000000000014,27.269999999999985,27.27,27.27,27.269999999999985,1.4210854715202004e-14,0.0,15.17,14.74,14.967500000000001,14.98,14.74,0.16813313177360356,-0.14333333333333323
1 -> 2,0.1945980000000001,0.1945979999999999,0.19459800000000002,0.19459800000000002,0.1945980000000001,9.100274040305112e-17,-9.25185853854297e-18,63.8,63.8,63.8,63.8,63.8,0.0,0.0,27.270000000000014,27.269999999999985,27.27,27.27,27.269999999999985,1.4210854715202004e-14,0.0,14.82,14.64,14.752500000000001,14.775,14.64,0.07189401922274197,-0.033333333333333215
1 -> 2,0.1945980000000001,0.1945979999999999,0.19459800000000002,0.19459800000000002,0.1945980000000001,9.100274040305112e-17,-9.25185853854297e-18,63.8,63.8,63.8,63.8,63.8,0.0,0.0,27.270000000000014,27.269999999999985,27.27,27.27,27.269999999999985,1.4210854715202004e-14,0.0,14.82,14.64,14.752500000000001,14.775,14.64,0.07189401922274197,-0.033333333333333215
1 -> 2,0.1945980000000001,0.1945979999999999,0.19459800000000002,0.19459800000000002,0.1945980000000001,9.100274040305112e-17,-9.25185853854297e-18,63.8,63.8,63.8,63.8,63.8,0.0,0.0,27.270000000000014,27.269999999999985,27.27,27.27,27.269999999999985,1.4210854715202004e-14,0.0,14.26,13.22,13.6825,13.625,13.22,0.3944854243188205,-0.3466666666666664
1 -> 2,0.1945980000000001,0.1945979999999999,0.19459800000000002,0.19459800000000002,0.1945980000000001,9.100274040305112e-17,-9.25185853854297e-18,63.8,63.8,63.8,63.8,63.8,0.0,0.0,27.270000000000014,27.269999999999985,27.27,27.27,27.269999999999985,1.4210854715202004e-14,0.0,14.26,13.22,13.6825,13.625,13.22,0.3944854243188205,-0.3466666666666664
1 -> 2,0.1945980000000001,0.1945979999999999,0.19459800000000002,0.19459800000000002,0.1945980000000001,9.100274040305112e-17,-9.25185853854297e-18,63.8,63.8,63.8,63.8,63.8,0.0,0.0,27.270000000000014,27.269999999999985,27.27,27.27,27.269999999999985,1.4210854715202004e-14,0.0,13.05,10.82,12.1475,12.36,10.82,0.8532401479067897,-0.7433333333333335
1 -> 2,0.1945980000000001,0.1945979999999999,0.19459800000000002,0.19459800000000002,0.1945980000000001,9.100274040305112e-17,-9.25185853854297e-18,63.8,63.8,63.8,63.8,63.8,0.0,0.0,27.270000000000014,27.269999999999985,27.27,27.27,27.269999999999985,1.4210854715202004e-14,0.0,13.05,10.82,12.1475,12.36,10.82,0.8532401479067897,-0.7433333333333335
1 -> 2,0.1933180000000001,0.193318,0.19331800000000005,0.19331800000000005,0.193318,5.551115123125783e-17,0.0,63.8,63.8,63.8,63.8,63.8,0.0,0.0,27.270000000000014,27.269999999999985,27.27,27.27,27.269999999999985,1.4210854715202004e-14,0.0,9.19,2.92,6.115,6.175000000000001,2.92,2.341970324320955,-2.09
1 -> 2,0.1933180000000001,0.193318,0.19331800000000005,0.19331800000000005,0.193318,5.551115123125783e-17,0.0,63.8,63.8,63.8,63.8,63.8,0.0,0.0,27.270000000000014,27.269999999999985,27.27,27.27,27.269999999999985,1.4210854715202004e-14,0.0,9.19,2.92,6.115,6.175000000000001,2.92,2.341970324320955,-2.09
1 -> 2,0.1933180000000001,0.193318,0.19331800000000005,0.19331800000000005,0.193318,5.551115123125783e-17,0.0,63.8,63.8,63.8,63.8,63.8,0.0,0.0,27.270000000000014,27.269999999999985,27.27,27.27,27.269999999999985,1.4210854715202004e-14,0.0,0.65,-6.39,-2.8724999999999996,-2.875,-6.39,2.6262746905074494,-2.3466666666666662
1 -> 2,0.1933180000000001,0.193318,0.19331800000000005,0.19331800000000005,0.193318,5.551115123125783e-17,0.0,63.8,63.8,63.8,63.8,63.8,0.0,0.0,27.270000000000014,27.269999999999985,27.27,27.27,27.269999999999985,1.4210854715202004e-14,0.0,0.65,-6.39,-2.8724999999999996,-2.875,-6.39,2.6262746905074494,-2.3466666666666662
1 -> 2,0.1933180000000001,0.193318,0.19331800000000005,0.19331800000000005,0.193318,5.551115123125783e-17,0.0,63.8,63.8,63.8,63.8,63.8,0.0,0.0,27.270000000000014,27.269999999999985,27.27,27.27,27.269999999999985,1.4210854715202004e-14,0.0,-8.55,-13.27,-11.07,-11.23,-13.27,1.7648229372942768,-1.573333333333333
1 -> 2,0.1933180000000001,0.193318,0.19331800000000005,0.19331800000000005,0.193318,5.551115123125783e-17,0.0,63.8,63.8,63.8,63.8,63.8,0.0,0.0,27.270000000000014,27.269999999999985,27.27,27.27,27.269999999999985,1.4210854715202004e-14,0.0,-8.55,-13.27,-11.07,-11.23,-13.27,1.7648229372942768,-1.573333333333333
1 -> 2,0.1933180000000001,0.193318,0.19331800000000005,0.19331800000000005,0.193318,5.551115123125783e-17,0.0,63.8,63.8,63.8,63.8,63.8,0.0,0.0,27.270000000000014,27.269999999999985,27.27,27.27,27.269999999999985,1.4210854715202004e-14,0.0,-14.41,-19.64,-16.759999999999998,-16.494999999999997,-19.64,1.959068656275221,-1.7433333333333334
1 -> 2,0.1933180000000001,0.193318,0.19331800000000005,0.19331800000000005,0.193318,5.551115123125783e-17,0.0,63.8,63.8,63.8,63.8,63.8,0.0,0.0,27.270000000000014,27.269999999999985,27.27,27.27,27.269999999999985,1.4210854715202004e-14,0.0,-14.41,-19.64,-16.759999999999998,-16.494999999999997,-19.64,1.959068656275221,-1.7433333333333334
1 -> 2,0.1933180000000001,0.193318,0.19331800000000005,0.19331800000000005,0.193318,5.551115123125783e-17,0.0,63.33,63.33,63.33,63.33,63.33,0.0,0.0,27.270000000000014,27.269999999999985,27.27,27.27,27.269999999999985,1.4210854715202004e-14,0.0,-22.62,-31.5,-27.335,-27.61,-31.5,3.3508916723761746,-2.9599999999999995
1 -> 2,0.1933180000000001,0.193318,0.19331800000000005,0.19331800000000005,0.193318,5.551115123125783e-17,0.0,63.33,63.33,63.33,63.33,63.33,0.0,0.0,27.270000000000014,27.269999999999985,27.27,27.27,27.269999999999985,1.4210854715202004e-14,0.0,-22.62,-31.5,-27.335,-27.61,-31.5,3.3508916723761746,-2.9599999999999995
1 -> 2,0.1933180000000001,0.193318,0.19331800000000005,0.19331800000000005,0.193318,5.551115123125783e-17,0.0,63.33,63.33,63.33,63.33,63.33,0.0,0.0,27.270000000000014,27.269999999999985,27.27,27.27,27.269999999999985,1.4210854715202004e-14,0.0,-20.66,-32.07,-27.4,-28.435000000000002,-32.07,4.392613117496236,3.8033333333333332
1 -> 2,0.1933180000000001,0.193318,0.19331800000000005,0.19331800000000005,0.193318,5.551115123125783e-17,0.0,63.33,63.33,63.33,63.33,63.33,0.0,0.0,27.270000000000014,27.269999999999985,27.27,27.27,27.269999999999985,1.4210854715202004e-14,0.0,-20.66,-32.07,-27.4,-28.435000000000002,-32.07,4.392613117496236,3.8033333333333332
1 -> 2,0.1933180000000001,0.193318,0.19331800000000005,0.19331800000000005,0.193318,5.551115123125783e-17,0.0,63.33,63.33,63.33,63.33,63.33,0.0,0.0,27.270000000000014,27.269999999999985,27.27,27.27,27.269999999999985,1.4210854715202004e-14,0.0,3.79,-13.85,-4.527500000000001,-4.025,-13.85,6.61013001006788,5.88
1 -> 2,0.1933180000000001,0.193318,0.19331800000000005,0.19331800000000005,0.193318,5.551115123125783e-17,0.0,63.33,63.33,63.33,63.33,63.33,0.0,0.0,27.270000000000014,27.269999999999985,27.27,27.27,27.269999999999985,1.4210854715202004e-14,0.0,3.79,-13.85,-4.527500000000001,-4.025,-13.85,6.61013001006788,5.88
1 -> 2,0.1933180000000001,0.193318,0.19331800000000005,0.19331800000000005,0.193318,5.551115123125783e-17,0.0,63.33,63.33,63.33,63.33,63.33,0.0,0.0,27.270000000000014,27.269999999999985,27.27,27.27,27.269999999999985,1.4210854715202004e-14,0.0,14.22,7.4,11.02,11.23,7.4,2.5422726053670957,2.2733333333333334
1 -> 2,0.1933180000000001,0.193318,0.19331800000000005,0.19331800000000005,0.193318,5.551115123125783e-17,0.0,63.33,63.33,63.33,63.33,63.33,0.0,0.0,27.270000000000014,27.269999999999985,27.27,27.27,27.269999999999985,1.4210854715202004e-14,0.0,14.22,7.4,11.02,11.23,7.4,2.5422726053670957,2.2733333333333334
1 -> 2,0.19075700000000012,0.19075699999999995,0.19075700000000007,0.19075700000000007,0.19075700000000012,6.938893903907228e-17,2.7755575615628914e-17,63.33,63.33,63.33,63.33,63.33,0.0,0.0,27.270000000000014,27.269999999999985,27.27,27.27,27.269999999999985,1.4210854715202004e-14,0.0,17.9,15.8,17.072499999999998,17.295,15.8,0.8104743981150785,0.6999999999999993
1 -> 2,0.19075700000000012,0.19075699999999995,0.19075700000000007,0.19075700000000007,0.19075700000000012,6.938893903907228e-17,2.7755575615628914e-17,63.33,63.33,63.33,63.33,63.33,0.0,0.0,27.270000000000014,27.269999999999985,27.27,27.27,27.269999999999985,1.4210854715202004e-14,0.0,17.9,15.8,17.072499999999998,17.295,15.8,0.8104743981150785,0.6999999999999993
1 -> 2,0.19075700000000012,0.19075699999999995,0.19075700000000007,0.19075700000000007,0.19075700000000012,6.938893903907228e-17,2.7755575615628914e-17,63.33,63.33,63.33,63.33,63.33,0.0,0.0,27.270000000000014,27.269999999999985,27.27,27.27,27.269999999999985,1.4210854715202004e-14,0.0,18.61,17.98,18.25,18.205,17.98,0.24135036772294313,0.20999999999999966
1 -> 2,0.19075700000000012,0.19075699999999995,0.19075700000000007,0.19075700000000007,0.19075700000000012,6.938893903907228e-17,2.7755575615628914e-17,63.33,63.33,63.33,63.33,63.33,0.0,0.0,27.270000000000014,27.269999999999985,27.27,27.27,27.269999999999985,1.4210854715202004e-14,0.0,18.61,17.98,18.25,18.205,17.98,0.24135036772294313,0.20999999999999966
1 -> 2,0.19075700000000012,0.19075699999999995,0.19075700000000007,0.19075700000000007,0.19075700000000012,6.938893903907228e-17,2.7755575615628914e-17,63.33,63.33,63.33,63.33,63.33,0.0,0.0,27.270000000000014,27.269999999999985,27.27,27.27,27.269999999999985,1.4210854715202004e-14,0.0,18.79,17.41,18.26,18.42,17.41,0.5407864643276492,-0.4599999999999997
1 -> 2,0.19075700000000012,0.19075699999999995,0.19075700000000007,0.19075700000000007,0.19075700000000012,6.938893903907228e-17,2.7755575615628914e-17,63.33,63.33,63.33,63.33,63.33,0.0,0.0,27.270000000000014,27.269999999999985,27.27,27.27,27.269999999999985,1.4210854715202004e-14,0.0,18.79,17.41,18.26,18.42,17.41,0.5407864643276492,-0.4599999999999997
1 -> 2,0.19075700000000012,0.19075699999999995,0.19075700000000007,0.19075700000000007,0.19075700000000012,6.938893903907228e-17,2.7755575615628914e-17,63.33,63.33,63.33,63.33,63.33,0.0,0.0,27.270000000000014,27.269999999999985,27.27,27.27,27.269999999999985,1.4210854715202004e-14,0.0,16.57,14.69,15.5775,15.525,14.69,0.6986191737992884,-0.6266666666666669
1 -> 2,0.19075700000000012,0.19075699999999995,0.19075700000000007,0.19075700000000007,0.19075700000000012,6.938893903907228e-17,2.7755575615628914e-17,63.33,63.33,63.33,63.33,63.33,0.0,0.0,27.270000000000014,27.269999999999985,27.27,27.27,27.269999999999985,1.4210854715202004e-14,0.0,16.57,14.69,15.5775,15.525,14.69,0.6986191737992884,-0.6266666666666669
1 -> 2,0.1945980000000001,0.1945979999999999,0.19459800000000002,0.19459800000000002,0.1945980000000001,9.100274040305112e-17,-9.25185853854297e-18,63.33,63.33,63.33,63.33,63.33,0.0,0.0,27.270000000000014,27.269999999999985,27.27,27.27,27.269999999999985,1.4210854715202004e-14,0.0,13.98,9.18,11.8175,12.055,9.18,1.8079045190496097,-1.6000000000000003
1 -> 2,0.1945980000000001,0.1945979999999999,0.19459800000000002,0.19459800000000002,0.1945980000000001,9.100274040305112e-17,-9.25185853854297e-18,63.33,63.33,63.33,63.33,63.33,0.0,0.0,27.270000000000014,27.269999999999985,27.27,27.27,27.269999999999985,1.4210854715202004e-14,0.0,13.98,9.18,11.8175,12.055,9.18,1.8079045190496097,-1.6000000000000003
1 -> 2,0.1945980000000001,0.1945979999999999,0.19459800000000002,0.19459800000000002,0.1945980000000001,9.100274040305112e-17,-9.25185853854297e-18,63.33,63.33,63.33,63.33,63.33,0.0,0.0,27.270000000000014,27.269999999999985,27.27,27.27,27.269999999999985,1.4210854715202004e-14,0.0,6.97,2.25,4.39,4.17,2.25,1.773485269180435,-1.5733333333333333
1 -> 2,0.1945980000000001,0.1945979999999999,0.19459800000000002,0.19459800000000002,0.1945980000000001,9.100274040305112e-17,-9.25185853854297e-18,63.33,63.33,63.33,63.33,63.33,0.0,0.0,27.270000000000014,27.269999999999985,27.27,27.27,27.269999999999985,1.4210854715202004e-14,0.0,6.97,2.25,4.39,4.17,2.25,1.773485269180435,-1.5733333333333333
1 -> 2,0.1945980000000001,0.1945979999999999,0.19459800000000002,0.19459800000000002,0.1945980000000001,9.100274040305112e-17,-9.25185853854297e-18,63.33,63.33,63.33,63.33,63.33,0.0,0.0,27.270000000000014,27.269999999999985,27.27,27.27,27.269999999999985,1.4210854715202004e-14,0.0,1.32,-3.36,-0.77,-0.52,-3.36,1.7575835684256949,-1.5599999999999998
1 -> 2,0.1945980000000001,0.1945979999999999,0.19459800000000002,0.19459800000000002,0.1945980000000001,9.100274040305112e-17,-9.25185853854297e-18,63.33,63.33,63.33,63.33,63.33,0.0,0.0,27.270000000000014,27.269999999999985,27.27,27.27,27.269999999999985,1.4210854715202004e-14,0.0,1.32,-3.36,-0.77,-0.52,-3.36,1.7575835684256949,-1.5599999999999998
1 -> 2,0.1945980000000001,0.1945979999999999,0.19459800000000002,0.19459800000000002,0.1945980000000001,9.100274040305112e-17,-9.25185853854297e-18,63.33,63.33,63.33,63.33,63.33,0.0,0.0,27.270000000000014,27.269999999999985,27.27,27.27,27.269999999999985,1.4210854715202004e-14,0.0,-5.88,-13.03,-9.62,-9.785,-13.03,2.6795801910000754,-2.3833333333333333
1 -> 2,0.1945980000000001,0.1945979999999999,0.19459800000000002,0.19459800000000002,0.1945980000000001,9.100274040305112e-17,-9.25185853854297e-18,63.33,63.33,63.33,63.33,63.33,0.0,0.0,27.270000000000014,27.269999999999985,27.27,27.27,27.269999999999985,1.4210854715202004e-14,0.0,-5.88,-13.03,-9.62,-9.785,-13.03,2.6795801910000754,-2.3833333333333333
1 -> 2,0.1920380000000001,0.19203799999999996,0.19203800000000004,0.19203800000000004,0.1920380000000001,6.359601310784502e-17,-9.25185853854297e-18,63.33,63.33,63.33,63.33,63.33,0.0,0.0,27.270000000000014,27.269999999999985,27.27,27.27,27.269999999999985,1.4210854715202004e-14,0.0,-14.52,-17.73,-16.087500000000002,-16.05,-17.73,1.183160492071976,-1.0700000000000003
1 -> 2,0.1920380000000001,0.19203799999999996,0.19203800000000004,0.19203800000000004,0.1920380000000001,6.359601310784502e-17,-9.25185853854297e-18,63.33,63.33,63.33,63.33,63.33,0.0,0.0,27.270000000000014,27.269999999999985,27.27,27.27,27.269999999999985,1.4210854715202004e-14,0.0,-14.52,-17.73,-16.087500000000002,-16.05,-17.73,1.183160492071976,-1.0700000000000003
1 -> 2,0.1920380000000001,0.19203799999999996,0.19203800000000004,0.19203800000000004,0.1920380000000001,6.359601310784502e-17,-9.25185853854297e-18,63.33,63.33,63.33,63.33,63.33,0.0,0.0,27.270000000000014,27.269999999999985,27.27,27.27,27.269999999999985,1.4210854715202004e-14,0.0,-19.63,-30.28,-24.635,-24.315,-30.28,4.000090623973413,-3.5500000000000007
1 -> 2,0.1920380000000001,0.19203799999999996,0.19203800000000004,0.19203800000000004,0.1920380000000001,6.359601310784502e-17,-9.25185853854297e-18,63.33,63.33,63.33,63.33,63.33,0.0,0.0,27.270000000000014,27.269999999999985,27.27,27.27,27.269999999999985,1.4210854715202004e-14,0.0,-19.63,-30.28,-24.635,-24.315,-30.28,4.000090623973413,-3.5500000000000007
1 -> 2,0.1920380000000001,0.19203799999999996,0.19203800000000004,0.19203800000000004,0.1920380000000001,6.359601310784502e-17,-9.25185853854297e-18,63.33,63.33,63.33,63.33,63.33,0.0,0.0,27.270000000000014,27.269999999999985,27.27,27.27,27.269999999999985,1.4210854715202004e-14,0.0,-32.8,-36.06,-34.650000000000006,-34.870000000000005,-36.06,1.35207248326412,0.37333333333333485
1 -> 2,0.1920380000000001,0.19203799999999996,0.19203800000000004,0.19203800000000004,0.1920380000000001,6.359601310784502e-17,-9.25185853854297e-18,63.33,63.33,63.33,63.33,63.33,0.0,0.0,27.270000000000014,27.269999999999985,27.27,27.27,27.269999999999985,1.4210854715202004e-14,0.0,-32.8,-36.06,-34.650000000000006,-34.870000000000005,-36.06,1.35207248326412,0.37333333333333485
1 -> 2,0.1920380000000001,0.19203799999999996,0.19203800000000004,0.19203800000000004,0.1920380000000001,6.359601310784502e-17,-9.25185853854297e-18,63.33,63.33,63.33,63.33,63.33,0.0,0.0,27.270000000000014,27.269999999999985,27.27,27.27,27.269999999999985,1.4210854715202004e-14,0.0,-6.22,-27.28,-16.6125,-16.475,-27.28,7.894483437819096,7.0200000000000005
1 -> 2,0.1920380000000001,0.19203799999999996,0.19203800000000004,0.19203800000000004,0.1920380000000001,6.359601310784502e-17,-9.25185853854297e-18,63.33,63.33,63.33,63.33,63.33,0.0,0.0,27.270000000000014,27.269999999999985,27.27,27.27,27.269999999999985,1.4210854715202004e-14,0.0,-6.22,-27.28,-16.6125,-16.475,-27.28,7.894483437819096,7.0200000000000005
1 -> 2,0.1958790000000001,0.19587899999999994,0.19587900000000005,0.19587900000000005,0.1958790000000001,7.343435057440258e-17,1.850371707708594e-17,63.57,63.57,63.57,63.57,63.57,0.0,0.0,27.290000000000013,27.289999999999992,27.290000000000006,27.290000000000006,27.290000000000013,1.020439314654103e-14,-1.1842378929335002e-15,6.81,-1.2,3.135,3.465,-1.2,2.977755026861679,2.67
1 -> 2,0.1958790000000001,0.19587899999999994,0.19587900000000005,0.19587900000000005,0.1958790000000001,7.343435057440258e-17,1.850371707708594e-17,63.57,63.57,63.57,63.57,63.57,0.0,0.0,27.290000000000013,27.289999999999992,27.290000000000006,27.290000000000006,27.290000000000013,1.020439314654103e-14,-1.1842378929335002e-15,6.81,-1.2,3.135,3.465,-1.2,2.977755026861679,2.67
1 -> 2,0.1958790000000001,0.19587899999999994,0.19587900000000005,0.19587900000000005,0.1958790000000001,7.343435057440258e-17,1.850371707708594e-17,63.57,63.57,63.57,63.57,63.57,0.0,0.0,27.290000000000013,27.289999999999992,27.290000000000006,27.290000000000006,27.290000000000013,1.020439314654103e-14,-1.1842378929335002e-15,17.45,9.21,13.3875,13.445,9.21,3.0901486614724534,2.746666666666666
1 -> 2,0.1958790000000001,0.19587899999999994,0.19587900000000005,0.19587900000000005,0.1958790000000001,7.343435057440258e-17,1.850371707708594e-17,63.57,63.57,63.57,63.57,63.57,0.0,0.0,27.290000000000013,27.289999999999992,27.290000000000006,27.290000000000006,27.290000000000013,1.020439314654103e-14,-1.1842378929335002e-15,17.45,9.21,13.3875,13.445,9.21,3.0901486614724534,2.746666666666666
1 -> 2,0.1958790000000001,0.19587899999999994,0.19587900000000005,0.19587900000000005,0.1958790000000001,7.343435057440258e-17,1.850371707708594e-17,63.57,63.57,63.57,63.57,63.57,0.0,0.0,27.290000000000013,27.289999999999992,27.290000000000006,27.290000000000006,27.290000000000013,1.020439314654103e-14,-1.1842378929335002e-15,20.54,19.24,20.119999999999997,20.35,19.24,0.5262603918213881,0.43333333333333357
1 -> 2,0.1958790000000001,0.19587899999999994,0.19587900000000005,0.19587900000000005,0.1958790000000001,7.343435057440258e-17,1.850371707708594e-17,63.57,63.57,63.57,63.57,63.57,0.0,0.0,27.290000000000013,27.289999999999992,27.290000000000006,27.290000000000006,27.290000000000013,1.020439314654103e-14,-1.1842378929335002e-15,20.54,19.24,20.119999999999997,20.35,19.24,0.5262603918213881,0.43333333333333357
1 -> 2,0.1958790000000001,0.19587899999999994,0.19587900000000005,0.19587900000000005,0.1958790000000001,7.343435057440258e-17,1.850371707708594e-17,63.57,63.57,63.57,63.57,63.57,0.0,0.0,27.290000000000013,27.289999999999992,27.290000000000006,27.290000000000006,27.290000000000013,1.020439314654103e-14,-1.1842378929335002e-15,20.6,20.17,20.465000000000003,20.545,20.17,0.17182840277439537,-0.12666666666666634
1 -> 2,0.1958790000000001,0.19587899999999994,0.19587900000000005,0.19587900000000005,0.1958790000000001,7.343435057440258e-17,1.850371707708594e-17,63.57,63.57,63.57,63.57,63.57,0.0,0.0,27.290000000000013,27.289999999999992,27.290000000000006,27.290000000000006,27.290000000000013,1.020439314654103e-14,-1.1842378929335002e-15,20.6,20.17,20.465000000000003,20.545,20.17,0.17182840277439537,-0.12666666666666634
1 -> 2,0.1945980000000001,0.1945979999999999,0.19459800000000002,0.19459800000000002,0.1945980000000001,9.100274040305112e-17,-9.25185853854297e-18,63.57,63.57,63.57,63.57,63.57,0.0,0.0,27.290000000000013,27.289999999999992,27.290000000000006,27.290000000000006,27.290000000000013,1.020439314654103e-14,-1.1842378929335002e-15,19.41,16.86,18.0375,17.939999999999998,16.86,0.9657995392419696,-0.8500000000000002
1 -> 2,0.1945980000000001,0.1945979999999999,0.19459800000000002,0.19459800000000002,0.1945980000000001,9.100274040305112e-17,-9.25185853854297e-18,63.57,63.57,63.57,63.57,63.57,0.0,0.0,27.290000000000013,27.289999999999992,27.290000000000006,27.290000000000006,27.290000000000013,1.020439314654103e-14,-1.1842378929335002e-15,19.41,16.86,18.0375,17.939999999999998,16.86,0.9657995392419696,-0.8500000000000002
1 -> 2,0.1945980000000001,0.1945979999999999,0.19459800000000002,0.19459800000000002,0.1945980000000001,9.100274040305112e-17,-9.25185853854297e-18,63.57,63.57,63.57,63.57,63.57,0.0,0.0,27.290000000000013,27.289999999999992,27.290000000000006,27.290000000000006,27.290000000000013,1.020439314654103e-14,-1.1842378929335002e-15,16.71,15.93,16.472500000000004,16.625,15.93,0.3160992723813204,-0.24333333333333348
1 -> 2,0.1945980000000001,0.1945979999999999,0.19459800000000002,0.19459800000000002,0.1945980000000001,9.100274040305112e-17,-9.25185853854297e-18,63.57,63.57,63.57,63.57,63.57,0.0,0.0,27.290000000000013,27.289999999999992,27.290000000000006,27.290000000000006,27.290000000000013,1.020439314654103e-14,-1.1842378929335002e-15,16.71,15.93,16.472500000000004,16.625,15.93,0.3160992723813204,-0.24333333333333348
1 -> 2,0.1945980000000001,0.1945979999999999,0.19459800000000002,0.19459800000000002,0.1945980000000001,9.100274040305112e-17,-9.25185853854297e-18,63.57,63.57,63.57,63.57,63.57,0.0,0.0,27.290000000000013,27.289999999999992,27.290000000000006,27.290000000000006,27.290000000000013,1.020439314654103e-14,-1.1842378929335002e-15,14.51,7.83,11.2175,11.265,7.83,2.506425492608946,-2.2266666666666666
1 -> 2,0.1945980000000001,0.1945979999999999,0.19459800000000002,0.19459800000000002,0.1945980000000001,9.100274040305112e-17,-9.25185853854297e-18,63.57,63.57,63.57,63.57,63.57,0.0,0.0,27.290000000000013,27.289999999999992,27.290000000000006,27.290000000000006,27.290000000000013,1.020439314654103e-14,-1.1842378929335002e-15,14.51,7.83,11.2175,11.265,7.83,2.506425492608946,-2.2266666666666666
1 -> 2,0.1945980000000001,0.1945979999999999,0.19459800000000002,0.19459800000000002,0.1945980000000001,9.100274040305112e-17,-9.25185853854297e-18,63.57,63.57,63.57,63.57,63.57,0.0,0.0,27.290000000000013,27.289999999999992,27.290000000000006,27.290000000000006,27.290000000000013,1.020439314654103e-14,-1.1842378929335002e-15,5.98,2.09,4.0,3.965,2.09,1.4386625733645815,-1.2966666666666669
1 -> 2,0.1945980000000001,0.1945979999999999,0.19459800000000002,0.19459800000000002,0.1945980000000001,9.100274040305112e-17,-9.25185853854297e-18,63.57,63.57,63.57,63.57,63.57,0.0,0.0,27.290000000000013,27.289999999999992,27.290000000000006,27.290000000000006,27.290000000000013,1.020439314654103e-14,-1.1842378929335002e-15,5.98,2.09,4.0,3.965,2.09,1.4386625733645815,-1.2966666666666669
1 -> 2,0.1920380000000001,0.19203799999999996,0.19203800000000004,0.19203800000000004,0.1920380000000001,6.359601310784502e-17,-9.25185853854297e-18,63.57,63.57,63.57,63.57,63.57,0.0,0.0,27.290000000000013,27.289999999999992,27.290000000000006,27.290000000000006,27.290000000000013,1.020439314654103e-14,-1.1842378929335002e-15,0.42,-6.97,-3.12,-2.9650000000000003,-6.97,2.7659808386899574,-2.4633333333333334
1 -> 2,0.1920380000000001,0.19203799999999996,0.19203800000000004,0.19203800000000004,0.1920380000000001,6.359601310784502e-17,-9.25185853854297e-18,63.57,63.57,63.57,63.57,63.57,0.0,0.0,27.290000000000013,27.289999999999992,27.290000000000006,27.290000000000006,27.290000000000013,1.020439314654103e-14,-1.1842378929335002e-15,0.42,-6.97,-3.12,-2.9650000000000003,-6.97,2.7659808386899574,-2.4633333333333334
1 -> 2,0.1920380000000001,0.19203799999999996,0.19203800000000004,0.19203800000000004,0.1920380000000001,6.359601310784502e-17,-9.25185853854297e-18,63.57,63.57,63.57,63.57,63.57,0.0,0.0,27.290000000000013,27.289999999999992,27.290000000000006,27.290000000000006,27.290000000000013,1.020439314654103e-14,-1.1842378929335002e-15,-9.65,-15.61,-12.8375,-13.045,-15.61,2.2312034308865694,-1.9866666666666664
1 -> 2,0.1920380000000001,0.19203799999999996,0.19203800000000004,0.19203800000000004,0.1920380000000001,6.359601310784502e-17,-9.25185853854297e-18,63.57,63.57,63.57,63.57,63.57,0.0,0.0,27.290000000000013,27.289999999999992,27.290000000000006,27.290000000000006,27.290000000000013,1.020439314654103e-14,-1.1842378929335002e-15,-9.65,-15.61,-12.8375,-13.045,-15.61,2.2312034308865694,-1.9866666666666664
1 -> 2,0.1920380000000001,0.19203799999999996,0.19203800000000004,0.19203800000000004,0.1920380000000001,6.359601310784502e-17,-9.25185853854297e-18,63.57,63.57,63.57,63.57,63.57,0.0,0.0,27.290000000000013,27.289999999999992,27.290000000000006,27.290000000000006,27.290000000000013,1.020439314654103e-14,-1.1842378929335002e-15,-16.88,-21.74,-19.089999999999996,-18.869999999999997,-21.74,1.8137392315324712,-1.6199999999999999
1 -> 2,0.1920380000000001,0.19203799999999996,0.19203800000000004,0.19203800000000004,0.1920380000000001,6.359601310784502e-17,-9.25185853854297e-18,63.57,63.57,63.57,63.57,63.57,0.0,0.0,27.290000000000013,27.289999999999992,27.290000000000006,27.290000000000006,27.290000000000013,1.020439314654103e-14,-1.1842378929335002e-15,-16.88,-21.74,-19.089999999999996,-18.869999999999997,-21.74,1.8137392315324712,-1.6199999999999999
1 -> 2,0.1920380000000001,0.19203799999999996,0.19203800000000004,0.19203800000000004,0.1920380000000001,6.359601310784502e-17,-9.25185853854297e-18,63.57,63.57,63.57,63.57,63.57,0.0,0.0,27.290000000000013,27.289999999999992,27.290000000000006,27.290000000000006,27.290000000000013,1.020439314654103e-14,-1.1842378929335002e-15,-24.59,-34.48,-29.667499999999997,-29.8,-34.48,3.71625063067603,-3.2966666666666655
1 -> 2,0.1920380000000001,0.19203799999999996,0.19203800000000004,0.19203800000000004,0.1920380000000001,6.359601310784502e-17,-9.25185853854297e-18,63.57,63.57,63.57,63.57,63.57,0.0,0.0,27.290000000000013,27.289999999999992,27.290000000000006,27.290000000000006,27.290000000000013,1.020439314654103e-14,-1.1842378929335002e-15,-24.59,-34.48,-29.667499999999997,-29.8,-34.48,3.71625063067603,-3.2966666666666655
1 -> 2,0.1933180000000001,0.193318,0.19331800000000005,0.19331800000000005,0.193318,5.551115123125783e-17,0.0,63.57,63.57,63.57,63.57,63.57,0.0,0.0,27.290000000000013,27.289999999999992,27.290000000000006,27.290000000000006,27.290000000000013,1.020439314654103e-14,-1.1842378929335002e-15,-26.32,-35.91,-32.315,-33.515,-35.91,3.777912783535373,3.1966666666666654
1 -> 2,0.1933180000000001,0.193318,0.19331800000000005,0.19331800000000005,0.193318,5.551115123125783e-17,0.0,63.57,63.57,63.57,63.57,63.57,0.0,0.0,27.290000000000013,27.289999999999992,27.290000000000006,27.290000000000006,27.290000000000013,1.020439314654103e-14,-1.1842378929335002e-15,-26.32,-35.91,-32.315,-33.515,-35.91,3.777912783535373,3.1966666666666654
1 -> 2,0.1933180000000001,0.193318,0.19331800000000005,0.19331800000000005,0.193318,5.551115123125783e-17,0.0,63.57,63.57,63.57,63.57,63.57,0.0,0.0,27.290000000000013,27.289999999999992,27.290000000000006,27.290000000000006,27.290000000000013,1.020439314654103e-14,-1.1842378929335002e-15,1.66,-19.19,-8.350000000000001,-7.935,-19.19,7.80862023663592,6.95
1 -> 2,0.1933180000000001,0.193318,0.19331800000000005,0.19331800000000005,0.193318,5.551115123125783e-17,0.0,63.57,63.57,63.57,63.57,63.57,0.0,0.0,27.290000000000013,27.289999999999992,27.290000000000006,27.290000000000006,27.290000000000013,1.020439314654103e-14,-1.1842378929335002e-15,1.66,-19.19,-8.350000000000001,-7.935,-19.19,7.80862023663592,6.95
1 -> 2,0.1933180000000001,0.193318,0.19331800000000005,0.19331800000000005,0.193318,5.551115123125783e-17,0.0,63.57,63.57,63.57,63.57,63.57,0.0,0.0,27.290000000000013,27.289999999999992,27.290000000000006,27.290000000000006,27.290000000000013,1.020439314654103e-14,-1.1842378929335002e-15,13.43,6.21,10.2,10.58,6.21,2.7037473994439645,2.4066666666666667
1 -> 2,0.1933180000000001,0.193318,0.19331800000000005,0.19331800000000005,0.193318,5.551115123125783e-17,0.0,63.57,63.57,63.57,63.57,63.57,0.0,0.0,27.290000000000013,27.289999999999992,27.290000000000006,27.290000000000006,27.290000000000013,1.020439314654103e-14,-1.1842378929335002e-15,13.43,6.21,10.2,10.58,6.21,2.7037473994439645,2.4066666666666667
1 -> 2,0.1933180000000001,0.193318,0.19331800000000005,0.19331800000000005,0.193318,5.551115123125783e-17,0.0,63.57,63.57,63.57,63.57,63.57,0.0,0.0,27.290000000000013,27.289999999999992,27.290000000000006,27.290000000000006,27.290000000000013,1.020439314654103e-14,-1.1842378929335002e-15,18.27,14.85,16.625,16.69,14.85,1.2762151072605277,1.14
1 -> 2,0.1933180000000001,0.193318,0.19331800000000005,0.19331800000000005,0.193318,5.551115123125783e-17,0.0,63.57,63.57,63.57,63.57,63.57,0.0,0.0,27.290000000000013,27.289999999999992,27.290000000000006,27.290000000000006,27.290000000000013,1.020439314654103e-14,-1.1842378929335002e-15,18.27,14.85,16.625,16.69,14.85,1.2762151072605277,1.14
1 -> 2,0.1920380000000001,0.19203799999999996,0.19203800000000004,0.19203800000000004,0.1920380000000001,6.359601310784502e-17,-9.25185853854297e-18,63.75,63.75,63.75,63.75,63.75,0.0,0.0,27.270000000000014,27.269999999999985,27.27,27.27,27.269999999999985,1.4210854715202004e-14,0.0,20.97,19.14,20.1275,20.200000000000003,19.14,0.6869634269741,0.6099999999999994
1 -> 2,0.1920380000000001,0.19203799999999996,0.19203800000000004,0.19203800000000004,0.1920380000000001,6.359601310784502e-17,-9.25185853854297e-18,63.75,63.75,63.75,63.75,63.75,0.0,0.0,27.270000000000014,27.269999999999985,27.27,27.27,27.269999999999985,1.4210854715202004e-14,0.0,20.97,19.14,20.1275,20.200000000000003,19.14,0.6869634269741,0.6099999999999994
1 -> 2,0.1920380000000001,0.19203799999999996,0.19203800000000004,0.19203800000000004,0.1920380000000001,6.359601310784502e-17,-9.25185853854297e-18,63.75,63.75,63.75,63.75,63.75,0.0,0.0,27.270000000000014,27.269999999999985,27.27,27.27,27.269999999999985,1.4210854715202004e-14,0.0,21.23,20.27,20.9125,21.075000000000003,21.23,0.39194227891361794,-0.3200000000000003
1 -> 2,0.1920380000000001,0.19203799999999996,0.19203800000000004,0.19203800000000004,0.1920380000000001,6.359601310784502e-17,-9.25185853854297e-18,63.75,63.75,63.75,63.75,63.75,0.0,0.0,27.270000000000014,27.269999999999985,27.27,27.27,27.269999999999985,1.4210854715202004e-14,0.0,21.23,20.27,20.9125,21.075000000000003,21.23,0.39194227891361794,-0.3200000000000003
1 -> 2,0.1920380000000001,0.19203799999999996,0.19203800000000004,0.19203800000000004,0.1920380000000001,6.359601310784502e-17,-9.25185853854297e-18,63.75,63.75,63.75,63.75,63.75,0.0,0.0,27.270000000000014,27.269999999999985,27.27,27.27,27.269999999999985,1.4210854715202004e-14,0.0,19.33,16.25,17.7375,17.685000000000002,16.25,1.1563168899570733,-1.0266666666666662
1 -> 2,0.1920380000000001,0.19203799999999996,0.19203800000000004,0.19203800000000004,0.1920380000000001,6.359601310784502e-17,-9.25185853854297e-18,63.75,63.75,63.75,63.75,63.75,0.0,0.0,27.270000000000014,27.269999999999985,27.27,27.27,27.269999999999985,1.4210854715202004e-14,0.0,19.33,16.25,17.7375,17.685000000000002,16.25,1.1563168899570733,-1.0266666666666662
1 -> 2,0.1920380000000001,0.19203799999999996,0.19203800000000004,0.19203800000000004,0.1920380000000001,6.359601310784502e-17,-9.25185853854297e-18,63.75,63.75,63.75,63.75,63.75,0.0,0.0,27.270000000000014,27.269999999999985,27.27,27.27,27.269999999999985,1.4210854715202004e-14,0.0,15.6,13.28,14.5725,14.705,13.28,0.8659496232460642,-0.7733333333333334
1 -> 2,0.1920380000000001,0.19203799999999996,0.19203800000000004,0.19203800000000004,0.1920380000000001,6.359601310784502e-17,-9.25185853854297e-18,63.75,63.75,63.75,63.75,63.75,0.0,0.0,27.270000000000014,27.269999999999985,27.27,27.27,27.269999999999985,1.4210854715202004e-14,0.0,15.6,13.28,14.5725,14.705,13.28,0.8659496232460642,-0.7733333333333334
1 -> 2,0.1933180000000001,0.193318,0.19331800000000005,0.19331800000000005,0.193318,5.551115123125783e-17,0.0,63.75,63.75,63.75,63.75,63.75,0.0,0.0,27.270000000000014,27.269999999999985,27.27,27.27,27.269999999999985,1.4210854715202004e-14,0.0,11.71,6.04,8.83,8.785,6.04,2.1250058823447997,-1.8900000000000003
1 -> 2,0.1933180000000001,0.193318,0.19331800000000005,0.19331800000000005,0.193318,5.551115123125783e-17,0.0,63.75,63.75,63.75,63.75,63.75,0.0,0.0,27.270000000000014,27.269999999999985,27.27,27.27,27.269999999999985,1.4210854715202004e-14,0.0,11.71,6.04,8.83,8.785,6.04,2.1250058823447997,-1.8900000000000003
1 -> 2,0.1933180000000001,0.193318,0.19331800000000005,0.19331800000000005,0.193318,5.551115123125783e-17,0.0,63.75,63.75,63.75,63.75,63.75,0.0,0.0,27.270000000000014,27.269999999999985,27.27,27.27,27.269999999999985,1.4210854715202004e-14,0.0,4.63,0.1,2.545,2.7249999999999996,0.1,1.6849406517738241,-1.5099999999999998
1 -> 2,0.1933180000000001,0.193318,0.19331800000000005,0.19331800000000005,0.193318,5.551115123125783e-17,0.0,63.75,63.75,63.75,63.75,63.75,0.0,0.0,27.270000000000014,27.269999999999985,27.27,27.27,27.269999999999985,1.4210854715202004e-14,0.0,4.63,0.1,2.545,2.7249999999999996,0.1,1.6849406517738241,-1.5099999999999998
1 -> 2,0.1933180000000001,0.193318,0.19331800000000005,0.19331800000000005,0.193318,5.551115123125783e-17,0.0,63.75,63.75,63.75,63.75,63.75,0.0,0.0,27.270000000000014,27.269999999999985,27.27,27.27,27.269999999999985,1.4210854715202004e-14,0.0,-2.55,-11.96,-7.32,-7.385,-11.96,3.5273573677754855,-3.1366666666666667
1 -> 2,0.1933180000000001,0.193318,0.19331800000000005,0.19331800000000005,0.193318,5.551115123125783e-17,0.0,63.75,63.75,63.75,63.75,63.75,0.0,0.0,27.270000000000014,27.269999999999985,27.27,27.27,27.269999999999985,1.4210854715202004e-14,0.0,-2.55,-11.96,-7.32,-7.385,-11.96,3.5273573677754855,-3.1366666666666667
1 -> 2,0.1933180000000001,0.193318,0.19331800000000005,0.19331800000000005,0.193318,5.551115123125783e-17,0.0,63.75,63.75,63.75,63.75,63.75,0.0,0.0,27.270000000000014,27.269999999999985,27.27,27.27,27.269999999999985,1.4210854715202004e-14,0.0,-14.18,-17.85,-16.112499999999997,-16.21,-17.85,1.3540933313475851,-1.2233333333333338
1 -> 2,0.1933180000000001,0.193318,0.19331800000000005,0.19331800000000005,0.193318,5.551115123125783e-17,0.0,63.75,63.75,63.75,63.75,63.75,0.0,0.0,27.270000000000014,27.269999999999985,27.27,27.27,27.269999999999985,1.4210854715202004e-14,0.0,-14.18,-17.85,-16.112499999999997,-16.21,-17.85,1.3540933313475851,-1.2233333333333338
1 -> 2,0.19075700000000012,0.19075699999999995,0.19075700000000007,0.19075700000000007,0.19075700000000012,6.938893903907228e-17,2.7755575615628914e-17,63.75,63.75,63.75,63.75,63.75,0.0,0.0,27.270000000000014,27.269999999999985,27.27,27.27,27.269999999999985,1.4210854715202004e-14,0.0,-19.48,-29.2,-23.975,-23.61,-29.2,3.652050793732201,-3.2399999999999998
1 -> 2,0.19075700000000012,0.19075699999999995,0.19075700000000007,0.19075700000000007,0.19075700000000012,6.938893903907228e-17,2.7755575615628914e-17,63.75,63.75,63.75,63.75,63.75,0.0,0.0,27.270000000000014,27.269999999999985,27.27,27.27,27.269999999999985,1.4210854715202004e-14,0.0,-19.48,-29.2,-23.975,-23.61,-29.2,3.652050793732201,-3.2399999999999998
1 -> 2,0.19075700000000012,0.19075699999999995,0.19075700000000007,0.19075700000000007,0.19075700000000012,6.938893903907228e-17,2.7755575615628914e-17,63.75,63.75,63.75,63.75,63.75,0.0,0.0,27.270000000000014,27.269999999999985,27.27,27.27,27.269999999999985,1.4210854715202004e-14,0.0,-33.08,-37.46,-35.7825,-36.295,-37.46,1.6364042135120533,-1.1333333333333329
1 -> 2,0.19075700000000012,0.19075699999999995,0.19075700000000007,0.19075700000000007,0.19075700000000012,6.938893903907228e-17,2.7755575615628914e-17,63.75,63.75,63.75,63.75,63.75,0.0,0.0,27.270000000000014,27.269999999999985,27.27,27.27,27.269999999999985,1.4210854715202004e-14,0.0,-33.08,-37.46,-35.7825,-36.295,-37.46,1.6364042135120533,-1.1333333333333329
1 -> 2,0.19075700000000012,0.19075699999999995,0.19075700000000007,0.19075700000000007,0.19075700000000012,6.938893903907228e-17,2.7755575615628914e-17,63.75,63.75,63.75,63.75,63.75,0.0,0.0,27.270000000000014,27.269999999999985,27.27,27.27,27.269999999999985,1.4210854715202004e-14,0.0,-12.03,-32.94,-22.979999999999997,-23.475,-32.94,7.847168279067296,6.969999999999999
1 -> 2,0.19075700000000012,0.19075699999999995,0.19075700000000007,0.19075700000000007,0.19075700000000012,6.938893903907228e-17,2.7755575615628914e-17,63.75,63.75,63.75,63.75,63.75,0.0,0.0,27.270000000000014,27.269999999999985,27.27,27.27,27.269999999999985,1.4210854715202004e-14,0.0,-12.03,-32.94,-22.979999999999997,-23.475,-32.94,7.847168279067296,6.969999999999999
1 -> 2,0.19075700000000012,0.19075699999999995,0.19075700000000007,0.19075700000000007,0.19075700000000012,6.938893903907228e-17,2.7755575615628914e-17,63.75,63.75,63.75,63.75,63.75,0.0,0.0,27.270000000000014,27.269999999999985,27.27,27.27,27.269999999999985,1.4210854715202004e-14,0.0,9.37,-4.73,3.0124999999999997,3.705,-4.73,5.29687820796363,4.699999999999999
1 -> 2,0.19075700000000012,0.19075699999999995,0.19075700000000007,0.19075700000000007,0.19075700000000012,6.938893903907228e-17,2.7755575615628914e-17,63.75,63.75,63.75,63.75,63.75,0.0,0.0,27.270000000000014,27.269999999999985,27.27,27.27,27.269999999999985,1.4210854715202004e-14,0.0,9.37,-4.73,3.0124999999999997,3.705,-4.73,5.29687820796363,4.699999999999999
1 -> 2,0.1945980000000001,0.1945979999999999,0.19459800000000002,0.19459800000000002,0.1945980000000001,9.100274040305112e-17,-9.25185853854297e-18,63.75,63.75,63.75,63.75,63.75,0.0,0.0,27.270000000000014,27.269999999999985,27.27,27.27,27.269999999999985,1.4210854715202004e-14,0.0,16.26,11.73,14.1175,14.24,11.73,1.6893545365020337,1.5100000000000005
1 -> 2,0.1945980000000001,0.1945979999999999,0.19459800000000002,0.19459800000000002,0.1945980000000001,9.100274040305112e-17,-9.25185853854297e-18,63.75,63.75,63.75,63.75,63.75,0.0,0.0,27.270000000000014,27.269999999999985,27.27,27.27,27.269999999999985,1.4210854715202004e-14,0.0,16.26,11.73,14.1175,14.24,11.73,1.6893545365020337,1.5100000000000005
1 -> 2,0.1945980000000001,0.1945979999999999,0.19459800000000002,0.19459800000000002,0.1945980000000001,9.100274040305112e-17,-9.25185853854297e-18,63.75,63.75,63.75,63.75,63.75,0.0,0.0,27.270000000000014,27.269999999999985,27.27,27.27,27.269999999999985,1.4210854715202004e-14,0.0,18.85,17.35,18.285000000000004,18.47,17.35,0.590994923836068,0.5
1 -> 2,0.1945980000000001,0.1945979999999999,0.19459800000000002,0.19459800000000002,0.1945980000000001,9.100274040305112e-17,-9.25185853854297e-18,63.75,63.75,63.75,63.75,63.75,0.0,0.0,27.270000000000014,27.269999999999985,27.27,27.27,27.269999999999985,1.4210854715202004e-14,0.0,18.85,17.35,18.285000000000004,18.47,17.35,0.590994923836068,0.5
1 -> 2,0.1945980000000001,0.1945979999999999,0.19459800000000002,0.19459800000000002,0.1945980000000001,9.100274040305112e-17,-9.25185853854297e-18,63.75,63.75,63.75,63.75,63.75,0.0,0.0,27.270000000000014,27.269999999999985,27.27,27.27,27.269999999999985,1.4210854715202004e-14,0.0,18.56,16.22,17.4375,17.485,16.22,0.8814866703473174,-0.7799999999999999
1 -> 2,0.1945980000000001,0.1945979999999999,0.19459800000000002,0.19459800000000002,0.1945980000000001,9.100274040305112e-17,-9.25185853854297e-18,63.75,63.75,63.75,63.75,63.75,0.0,0.0,27.270000000000014,27.269999999999985,27.27,27.27,27.269999999999985,1.4210854715202004e-14,0.0,18.56,16.22,17.4375,17.485,16.22,0.8814866703473174,-0.7799999999999999
1 -> 2,0.1945980000000001,0.1945979999999999,0.19459800000000002,0.19459800000000002,0.1945980000000001,9.100274040305112e-17,-9.25185853854297e-18,63.75,63.75,63.75,63.75,63.75,0.0,0.0,27.270000000000014,27.269999999999985,27.27,27.27,27.269999999999985,1.4210854715202004e-14,0.0,16.12,15.43,15.704999999999998,15.635,15.43,0.2540177159176113,0.16666666666666727
1 -> 2,0.1945980000000001,0.1945979999999999,0.19459800000000002,0.19459800000000002,0.1945980000000001,9.100274040305112e-17,-9.25185853854297e-18,63.75,63.75,63.75,63.75,63.75,0.0,0.0,27.270000000000014,27.269999999999985,27.27,27.27,27.269999999999985,1.4210854715202004e-14,0.0,16.12,15.43,15.704999999999998,15.635,15.43,0.2540177159176113,0.16666666666666727
1 -> 2,0.1920380000000001,0.19203799999999996,0.19203800000000004,0.19203800000000004,0.1920380000000001,6.359601310784502e-17,-9.25185853854297e-18,64.22,64.22,64.22,64.22,64.22,0.0,0.0,27.290000000000013,27.289999999999992,27.290000000000006,27.290000000000006,27.290000000000013,1.020439314654103e-14,-1.1842378929335002e-15,16.88,15.99,16.544999999999998,16.655,15.99,0.3348507130050639,-0.20666666666666642
1 -> 2,0.1920380000000001,0.19203799999999996,0.19203800000000004,0.19203800000000004,0.1920380000000001,6.359601310784502e-17,-9.25185853854297e-18,64.22,64.22,64.22,64.22,64.22,0.0,0.0,27.290000000000013,27.289999999999992,27.290000000000006,27.290000000000006,27.290000000000013,1.020439314654103e-14,-1.1842378929335002e-15,16.88,15.99,16.544999999999998,16.655,15.99,0.3348507130050639,-0.20666666666666642
1 -> 2,0.1920380000000001,0.19203799999999996,0.19203800000000004,0.19203800000000004,0.1920380000000001,6.359601310784502e-17,-9.25185853854297e-18,64.22,64.22,64.22,64.22,64.22,0.0,0.0,27.290000000000013,27.289999999999992,27.290000000000006,27.290000000000006,27.290000000000013,1.020439314654103e-14,-1.1842378929335002e-15,14.72,9.08,11.975,12.05,9.08,2.1123505864320915,-1.8800000000000001
1 -> 2,0.1920380000000001,0.19203799999999996,0.19203800000000004,0.19203800000000004,0.1920380000000001,6.359601310784502e-17,-9.25185853854297e-18,64.22,64.22,64.22,64.22,64.22,0.0,0.0,27.290000000000013,27.289999999999992,27.290000000000006,27.290000000000006,27.290000000000013,1.020439314654103e-14,-1.1842378929335002e-15,14.72,9.08,11.975,12.05,9.08,2.1123505864320915,-1.8800000000000001
1 -> 2,0.1920380000000001,0.19203799999999996,0.19203800000000004,0.19203800000000004,0.1920380000000001,6.359601310784502e-17,-9.25185853854297e-18,64.22,64.22,64.22,64.22,64.22,0.0,0.0,27.290000000000013,27.289999999999992,27.290000000000006,27.290000000000006,27.290000000000013,1.020439314654103e-14,-1.1842378929335002e-15,7.27,3.42,5.2425,5.14,3.42,1.4337080421062023,-1.2833333333333332
1 -> 2,0.1920380000000001,0.19203799999999996,0.19203800000000004,0.19203800000000004,0.1920380000000001,6.359601310784502e-17,-9.25185853854297e-18,64.22,64.22,64.22,64.22,64.22,0.0,0.0,27.290000000000013,27.289999999999992,27.290000000000006,27.290000000000006,27.290000000000013,1.020439314654103e-14,-1.1842378929335002e-15,7.27,3.42,5.2425,5.14,3.42,1.4337080421062023,-1.2833333333333332
1 -> 2,0.1920380000000001,0.19203799999999996,0.19203800000000004,0.19203800000000004,0.1920380000000001,6.359601310784502e-17,-9.25185853854297e-18,64.22,64.22,64.22,64.22,64.22,0.0,0.0,27.290000000000013,27.289999999999992,27.290000000000006,27.290000000000006,27.290000000000013,1.020439314654103e-14,-1.1842378929335002e-15,2.22,-3.71,-0.515,-0.28500000000000003,-3.71,2.2211764900610667,-1.9766666666666666
1 -> 2,0.1920380000000001,0.19203799999999996,0.19203800000000004,0.19203800000000004,0.1920380000000001,6.359601310784502e-17,-9.25185853854297e-18,64.22,64.22,64.22,64.22,64.22,0.0,0.0,27.290000000000013,27.289999999999992,27.290000000000006,27.290000000000006,27.290000000000013,1.020439314654103e-14,-1.1842378929335002e-15,2.22,-3.71,-0.515,-0.28500000000000003,-3.71,2.2211764900610667,-1.9766666666666666
1 -> 2,0.1920380000000001,0.19203799999999996,0.19203800000000004,0.19203800000000004,0.1920380000000001,6.359601310784502e-17,-9.25185853854297e-18,64.22,64.22,64.22,64.22,64.22,0.0,0.0,27.290000000000013,27.289999999999992,27.290000000000006,27.290000000000006,27.290000000000013,1.020439314654103e-14,-1.1842378929335002e-15,-6.45,-13.85,-10.3375,-10.525,-13.85,2.773620152436162,-2.4666666666666663
1 -> 2,0.1920380000000001,0.19203799999999996,0.19203800000000004,0.19203800000000004,0.1920380000000001,6.359601310784502e-17,-9.25185853854297e-18,64.22,64.22,64.22,64.22,64.22,0.0,0.0,27.290000000000013,27.289999999999992,27.290000000000006,27.290000000000006,27.290000000000013,1.020439314654103e-14,-1.1842378929335002e-15,-6.45,-13.85,-10.3375,-10.525,-13.85,2.773620152436162,-2.4666666666666663
1 -> 2,0.1920380000000001,0.19203799999999996,0.19203800000000004,0.19203800000000004,0.1920380000000001,6.359601310784502e-17,-9.25185853854297e-18,64.22,64.22,64.22,64.22,64.22,0.0,0.0,27.290000000000013,27.289999999999992,27.290000000000006,27.290000000000006,27.290000000000013,1.020439314654103e-14,-1.1842378929335002e-15,-15.33,-19.33,-17.18,-17.03,-19.33,1.4801013478812857,-1.3333333333333328
1 -> 2,0.1920380000000001,0.19203799999999996,0.19203800000000004,0.19203800000000004,0.1920380000000001,6.359601310784502e-17,-9.25185853854297e-18,64.22,64.22,64.22,64.22,64.22,0.0,0.0,27.290000000000013,27.289999999999992,27.290000000000006,27.290000000000006,27.290000000000013,1.020439314654103e-14,-1.1842378929335002e-15,-15.33,-19.33,-17.18,-17.03,-19.33,1.4801013478812857,-1.3333333333333328
1 -> 2,0.1920380000000001,0.19203799999999996,0.19203800000000004,0.19203800000000004,0.1920380000000001,6.359601310784502e-17,-9.25185853854297e-18,64.22,64.22,64.22,64.22,64.22,0.0,0.0,27.290000000000013,27.289999999999992,27.290000000000006,27.290000000000006,27.290000000000013,1.020439314654103e-14,-1.1842378929335002e-15,-21.92,-32.33,-27.1675,-27.21,-32.33,3.911044457686462,-3.469999999999999
1 -> 2,0.1920380000000001,0.19203799999999996,0.19203800000000004,0.19203800000000004,0.1920380000000001,6.359601310784502e-17,-9.25185853854297e-18,64.22,64.22,64.22,64.22,64.22,0.0,0.0,27.290000000000013,27.289999999999992,27.290000000000006,27.290000000000006,27.290000000000013,1.020439314654103e-14,-1.1842378929335002e-15,-21.92,-32.33,-27.1675,-27.21,-32.33,3.911044457686462,-3.469999999999999
1 -> 2,0.1920380000000001,0.19203799999999996,0.19203800000000004,0.19203800000000004,0.1920380000000001,6.359601310784502e-17,-9.25185853854297e-18,64.22,64.22,64.22,64.22,64.22,0.0,0.0,27.290000000000013,27.289999999999992,27.290000000000006,27.290000000000006,27.290000000000013,1.020439314654103e-14,-1.1842378929335002e-15,-25.68,-34.14,-31.122500000000002,-32.335,-34.14,3.383226086149137,2.8200000000000003
1 -> 2,0.1920380000000001,0.19203799999999996,0.19203800000000004,0.19203800000000004,0.1920380000000001,6.359601310784502e-17,-9.25185853854297e-18,64.22,64.22,64.22,64.22,64.22,0.0,0.0,27.290000000000013,27.289999999999992,27.290000000000006,27.290000000000006,27.290000000000013,1.020439314654103e-14,-1.1842378929335002e-15,-25.68,-34.14,-31.122500000000002,-32.335,-34.14,3.383226086149137,2.8200000000000003
1 -> 2,0.1933180000000001,0.193318,0.19331800000000005,0.19331800000000005,0.193318,5.551115123125783e-17,0.0,64.22,64.22,64.22,64.22,64.22,0.0,0.0,27.290000000000013,27.289999999999992,27.290000000000006,27.290000000000006,27.290000000000013,1.020439314654103e-14,-1.1842378929335002e-15,3.18,-18.75,-7.5075,-7.2299999999999995,-18.75,8.208207401741259,7.31
1 -> 2,0.1933180000000001,0.193318,0.19331800000000005,0.19331800000000005,0.193318,5.551115123125783e-17,0.0,64.22,64.22,64.22,64.22,64.22,0.0,0.0,27.290000000000013,27.289999999999992,27.290000000000006,27.290000000000006,27.290000000000013,1.020439314654103e-14,-1.1842378929335002e-15,3.18,-18.75,-7.5075,-7.2299999999999995,-18.75,8.208207401741259,7.31
1 -> 2,0.1933180000000001,0.193318,0.19331800000000005,0.19331800000000005,0.193318,5.551115123125783e-17,0.0,64.22,64.22,64.22,64.22,64.22,0.0,0.0,27.290000000000013,27.289999999999992,27.290000000000006,27.290000000000006,27.290000000000013,1.020439314654103e-14,-1.1842378929335002e-15,15.56,8.38,12.59,13.21,8.38,2.7367316273248274,2.393333333333333
1 -> 2,0.1933180000000001,0.193318,0.19331800000000005,0.19331800000000005,0.193318,5.551115123125783e-17,0.0,64.22,64.22,64.22,64.22,64.22,0.0,0.0,27.290000000000013,27.289999999999992,27.290000000000006,27.290000000000006,27.290000000000013,1.020439314654103e-14,-1.1842378929335002e-15,15.56,8.38,12.59,13.21,8.38,2.7367316273248274,2.393333333333333
1 -> 2,0.1933180000000001,0.193318,0.19331800000000005,0.19331800000000005,0.193318,5.551115123125783e-17,0.0,64.22,64.22,64.22,64.22,64.22,0.0,0.0,27.290000000000013,27.289999999999992,27.290000000000006,27.290000000000006,27.290000000000013,1.020439314654103e-14,-1.1842378929335002e-15,15.94,14.71,15.4175,15.51,14.71,0.4784545432953893,-0.40999999999999953
1 -> 2,0.1933180000000001,0.193318,0.19331800000000005,0.19331800000000005,0.193318,5.551115123125783e-17,0.0,64.22,64.22,64.22,64.22,64.22,0.0,0.0,27.290000000000013,27.289999999999992,27.290000000000006,27.290000000000006,27.290000000000013,1.020439314654103e-14,-1.1842378929335002e-15,15.94,14.71,15.4175,15.51,14.71,0.4784545432953893,-0.40999999999999953
1 -> 2,0.1933180000000001,0.193318,0.19331800000000005,0.19331800000000005,0.193318,5.551115123125783e-17,0.0,64.22,64.22,64.22,64.22,64.22,0.0,0.0,27.290000000000013,27.289999999999992,27.290000000000006,27.290000000000006,27.290000000000013,1.020439314654103e-14,-1.1842378929335002e-15,15.89,14.38,14.9475,14.76,14.38,0.5994737275310736,0.5033333333333333
1 -> 2,0.1933180000000001,0.193318,0.19331800000000005,0.19331800000000005,0.193318,5.551115123125783e-17,0.0,64.22,64.22,64.22,64.22,64.22,0.0,0.0,27.290000000000013,27.289999999999992,27.290000000000006,27.290000000000006,27.290000000000013,1.020439314654103e-14,-1.1842378929335002e-15,15.89,14.38,14.9475,14.76,14.38,0.5994737275310736,0.5033333333333333
1 -> 2,0.1920380000000001,0.19203799999999996,0.19203800000000004,0.19203800000000004,0.1920380000000001,6.359601310784502e-17,-9.25185853854297e-18,64.22,64.22,64.22,64.22,64.22,0.0,0.0,27.290000000000013,27.289999999999992,27.290000000000006,27.290000000000006,27.290000000000013,1.020439314654103e-14,-1.1842378929335002e-15,17.29,16.72,17.027499999999996,17.049999999999997,16.72,0.24324627438051324,0.046666666666666856
1 -> 2,0.1920380000000001,0.19203799999999996,0.19203800000000004,0.19203800000000004,0.1920380000000001,6.359601310784502e-17,-9.25185853854297e-18,64.22,64.22,64.22,64.22,64.22,0.0,0.0,27.290000000000013,27.289999999999992,27.290000000000006,27.290000000000006,27.290000000000013,1.020439314654103e-14,-1.1842378929335002e-15,17.29,16.72,17.027499999999996,17.049999999999997,16.72,0.24324627438051324,0.046666666666666856
1 -> 2,0.1920380000000001,0.19203799999999996,0.19203800000000004,0.19203800000000004,0.1920380000000001,6.359601310784502e-17,-9.25185853854297e-18,64.22,64.22,64.22,64.22,64.22,0.0,0.0,27.290000000000013,27.289999999999992,27.290000000000006,27.290000000000006,27.290000000000013,1.020439314654103e-14,-1.1842378929335002e-15,16.08,12.67,14.445,14.515,12.67,1.2720161162501042,-1.136666666666666
1 -> 2,0.1920380000000001,0.19203799999999996,0.19203800000000004,0.19203800000000004,0.1920380000000001,6.359601310784502e-17,-9.25185853854297e-18,64.22,64.22,64.22,64.22,64.22,0.0,0.0,27.290000000000013,27.289999999999992,27.290000000000006,27.290000000000006,27.290000000000013,1.020439314654103e-14,-1.1842378929335002e-15,16.08,12.67,14.445,14.515,12.67,1.2720161162501042,-1.136666666666666
1 -> 2,0.1920380000000001,0.19203799999999996,0.19203800000000004,0.19203800000000004,0.1920380000000001,6.359601310784502e-17,-9.25185853854297e-18,64.22,64.22,64.22,64.22,64.22,0.0,0.0,27.290000000000013,27.289999999999992,27.290000000000006,27.290000000000006,27.290000000000013,1.020439314654103e-14,-1.1842378929335002e-15,11.22,6.04,8.665000000000001,8.7,6.04,1.9345477507676052,-1.7266666666666668
1 -> 2,0.1920380000000001,0.19203799999999996,0.19203800000000004,0.19203800000000004,0.1920380000000001,6.359601310784502e-17,-9.25185853854297e-18,64.22,64.22,64.22,64.22,64.22,0.0,0.0,27.290000000000013,27.289999999999992,27.290000000000006,27.290000000000006,27.290000000000013,1.020439314654103e-14,-1.1842378929335002e-15,11.22,6.04,8.665000000000001,8.7,6.04,1.9345477507676052,-1.7266666666666668
1 -> 2,0.1920380000000001,0.19203799999999996,0.19203800000000004,0.19203800000000004,0.1920380000000001,6.359601310784502e-17,-9.25185853854297e-18,64.22,64.22,64.22,64.22,64.22,0.0,0.0,27.290000000000013,27.289999999999992,27.290000000000006,27.290000000000006,27.290000000000013,1.020439314654103e-14,-1.1842378929335002e-15,4.37,0.15,2.22,2.1799999999999997,0.15,1.5680720646704984,-1.406666666666667
1 -> 2,0.1920380000000001,0.19203799999999996,0.19203800000000004,0.19203800000000004,0.1920380000000001,6.359601310784502e-17,-9.25185853854297e-18,64.22,64.22,64.22,64.22,64.22,0.0,0.0,27.290000000000013,27.289999999999992,27.290000000000006,27.290000000000006,27.290000000000013,1.020439314654103e-14,-1.1842378929335002e-15,4.37,0.15,2.22,2.1799999999999997,0.15,1.5680720646704984,-1.406666666666667
1 -> 2,0.1958790000000001,0.19587899999999994,0.19587900000000005,0.19587900000000005,0.1958790000000001,7.343435057440258e-17,1.850371707708594e-17,65.0,65.0,65.0,65.0,65.0,0.0,0.0,27.290000000000013,27.289999999999992,27.290000000000006,27.290000000000006,27.290000000000013,1.020439314654103e-14,-1.1842378929335002e-15,-1.34,-7.19,-4.1825,-4.1,-7.19,2.18737713940692,-1.9500000000000002
1 -> 2,0.1958790000000001,0.19587899999999994,0.19587900000000005,0.19587900000000005,0.1958790000000001,7.343435057440258e-17,1.850371707708594e-17,65.0,65.0,65.0,65.0,65.0,0.0,0.0,27.290000000000013,27.289999999999992,27.290000000000006,27.290000000000006,27.290000000000013,1.020439314654103e-14,-1.1842378929335002e-15,-1.34,-7.19,-4.1825,-4.1,-7.19,2.18737713940692,-1.9500000000000002
1 -> 2,0.1958790000000001,0.19587899999999994,0.19587900000000005,0.19587900000000005,0.1958790000000001,7.343435057440258e-17,1.850371707708594e-17,65.0,65.0,65.0,65.0,65.0,0.0,0.0,27.290000000000013,27.289999999999992,27.290000000000006,27.290000000000006,27.290000000000013,1.020439314654103e-14,-1.1842378929335002e-15,-9.15,-13.53,-11.435,-11.530000000000001,-13.53,1.6285192660819212,-1.4599999999999997
1 -> 2,0.1958790000000001,0.19587899999999994,0.19587900000000005,0.19587900000000005,0.1958790000000001,7.343435057440258e-17,1.850371707708594e-17,65.0,65.0,65.0,65.0,65.0,0.0,0.0,27.290000000000013,27.289999999999992,27.290000000000006,27.290000000000006,27.290000000000013,1.020439314654103e-14,-1.1842378929335002e-15,-9.15,-13.53,-11.435,-11.530000000000001,-13.53,1.6285192660819212,-1.4599999999999997
1 -> 2,0.1958790000000001,0.19587899999999994,0.19587900000000005,0.19587900000000005,0.1958790000000001,7.343435057440258e-17,1.850371707708594e-17,65.0,65.0,65.0,65.0,65.0,0.0,0.0,27.290000000000013,27.289999999999992,27.290000000000006,27.290000000000006,27.290000000000013,1.020439314654103e-14,-1.1842378929335002e-15,-15.07,-23.53,-18.94,-18.58,-23.53,3.1755708148299893,-2.8200000000000003
1 -> 2,0.1958790000000001,0.19587899999999994,0.19587900000000005,0.19587900000000005,0.1958790000000001,7.343435057440258e-17,1.850371707708594e-17,65.0,65.0,65.0,65.0,65.0,0.0,0.0,27.290000000000013,27.289999999999992,27.290000000000006,27.290000000000006,27.290000000000013,1.020439314654103e-14,-1.1842378929335002e-15,-15.07,-23.53,-18.94,-18.58,-23.53,3.1755708148299893,-2.8200000000000003
1 -> 2,0.1958790000000001,0.19587899999999994,0.19587900000000005,0.19587900000000005,0.1958790000000001,7.343435057440258e-17,1.850371707708594e-17,65.0,65.0,65.0,65.0,65.0,0.0,0.0,27.290000000000013,27.289999999999992,27.290000000000006,27.290000000000006,27.290000000000013,1.020439314654103e-14,-1.1842378929335002e-15,-27.48,-35.33,-32.06,-32.715,-35.33,3.026788727347846,-2.616666666666666
1 -> 2,0.1958790000000001,0.19587899999999994,0.19587900000000005,0.19587900000000005,0.1958790000000001,7.343435057440258e-17,1.850371707708594e-17,65.0,65.0,65.0,65.0,65.0,0.0,0.0,27.290000000000013,27.289999999999992,27.290000000000006,27.290000000000006,27.290000000000013,1.020439314654103e-14,-1.1842378929335002e-15,-27.48,-35.33,-32.06,-32.715,-35.33,3.026788727347846,-2.616666666666666
1 -> 2,0.19075700000000012,0.19075699999999995,0.19075700000000007,0.19075700000000007,0.19075700000000012,6.938893903907228e-17,2.7755575615628914e-17,65.0,65.0,65.0,65.0,65.0,0.0,0.0,27.290000000000013,27.289999999999992,27.290000000000006,27.290000000000006,27.290000000000013,1.020439314654103e-14,-1.1842378929335002e-15,-16.95,-34.18,-26.520000000000003,-27.475,-34.18,6.519674071608181,5.743333333333333
1 -> 2,0.19075700000000012,0.19075699999999995,0.19075700000000007,0.19075700000000007,0.19075700000000012,6.938893903907228e-17,2.7755575615628914e-17,65.0,65.0,65.0,65.0,65.0,0.0,0.0,27.290000000000013,27.289999999999992,27.290000000000006,27.290000000000006,27.290000000000013,1.020439314654103e-14,-1.1842378929335002e-15,-16.95,-34.18,-26.520000000000003,-27.475,-34.18,6.519674071608181,5.743333333333333
1 -> 2,0.19075700000000012,0.19075699999999995,0.19075700000000007,0.19075700000000007,0.19075700000000012,6.938893903907228e-17,2.7755575615628914e-17,65.0,65.0,65.0,65.0,65.0,0.0,0.0,27.290000000000013,27.289999999999992,27.290000000000006,27.290000000000006,27.290000000000013,1.020439314654103e-14,-1.1842378929335002e-15,9.9,-8.93,1.1500000000000004,1.815,-8.93,7.061681811013577,6.276666666666666
1 -> 2,0.19075700000000012,0.19075699999999995,0.19075700000000007,0.19075700000000007,0.19075700000000012,6.938893903907228e-17,2.7755575615628914e-17,65.0,65.0,65.0,65.0,65.0,0.0,0.0,27.290000000000013,27.289999999999992,27.290000000000006,27.290000000000006,27.290000000000013,1.020439314654103e-14,-1.1842378929335002e-15,9.9,-8.93,1.1500000000000004,1.815,-8.93,7.061681811013577,6.276666666666666
1 -> 2,0.19075700000000012,0.19075699999999995,0.19075700000000007,0.19075700000000007,0.19075700000000012,6.938893903907228e-17,2.7755575615628914e-17,65.0,65.0,65.0,65.0,65.0,0.0,0.0,27.290000000000013,27.289999999999992,27.290000000000006,27.290000000000006,27.290000000000013,1.020439314654103e-14,-1.1842378929335002e-15,18.34,13.37,16.1575,16.46,13.37,1.8642877326206921,1.656666666666667
1 -> 2,0.19075700000000012,0.19075699999999995,0.19075700000000007,0.19075700000000007,0.19075700000000012,6.938893903907228e-17,2.7755575615628914e-17,65.0,65.0,65.0,65.0,65.0,0.0,0.0,27.290000000000013,27.289999999999992,27.290000000000006,27.290000000000006,27.290000000000013,1.020439314654103e-14,-1.1842378929335002e-15,18.34,13.37,16.1575,16.46,13.37,1.8642877326206921,1.656666666666667
1 -> 2,0.19075700000000012,0.19075699999999995,0.19075700000000007,0.19075700000000007,0.19075700000000012,6.938893903907228e-17,2.7755575615628914e-17,65.0,65.0,65.0,65.0,65.0,0.0,0.0,27.290000000000013,27.289999999999992,27.290000000000006,27.290000000000006,27.290000000000013,1.020439314654103e-14,-1.1842378929335002e-15,23.25,19.35,21.2075,21.115000000000002,19.35,1.4575042881583569,1.2999999999999996
1 -> 2,0.19075700000000012,0.19075699999999995,0.19075700000000007,0.19075700000000007,0.19075700000000012,6.938893903907228e-17,2.7755575615628914e-17,65.0,65.0,65.0,65.0,65.0,0.0,0.0,27.290000000000013,27.289999999999992,27.290000000000006,27.290000000000006,27.290000000000013,1.020439314654103e-14,-1.1842378929335002e-15,23.25,19.35,21.2075,21.115000000000002,19.35,1.4575042881583569,1.2999999999999996
1 -> 2,0.1945980000000001,0.1945979999999999,0.19459800000000002,0.19459800000000002,0.1945980000000001,9.100274040305112e-17,-9.25185853854297e-18,65.0,65.0,65.0,65.0,65.0,0.0,0.0,27.290000000000013,27.289999999999992,27.290000000000006,27.290000000000006,27.290000000000013,1.020439314654103e-14,-1.1842378929335002e-15,28.19,24.8,26.64,26.785,24.8,1.2739112998949338,1.1300000000000001
1 -> 2,0.1945980000000001,0.1945979999999999,0.19459800000000002,0.19459800000000002,0.1945980000000001,9.100274040305112e-17,-9.25185853854297e-18,65.0,65.0,65.0,65.0,65.0,0.0,0.0,27.290000000000013,27.289999999999992,27.290000000000006,27.290000000000006,27.290000000000013,1.020439314654103e-14,-1.1842378929335002e-15,28.19,24.8,26.64,26.785,24.8,1.2739112998949338,1.1300000000000001
1 -> 2,0.1945980000000001,0.1945979999999999,0.19459800000000002,0.19459800000000002,0.1945980000000001,9.100274040305112e-17,-9.25185853854297e-18,65.0,65.0,65.0,65.0,65.0,0.0,0.0,27.290000000000013,27.289999999999992,27.290000000000006,27.290000000000006,27.290000000000013,1.020439314654103e-14,-1.1842378929335002e-15,29.05,28.71,28.9175,28.955,28.71,0.12833062767710562,0.07000000000000028
1 -> 2,0.1945980000000001,0.1945979999999999,0.19459800000000002,0.19459800000000002,0.1945980000000001,9.100274040305112e-17,-9.25185853854297e-18,65.0,65.0,65.0,65.0,65.0,0.0,0.0,27.290000000000013,27.289999999999992,27.290000000000006,27.290000000000006,27.290000000000013,1.020439314654103e-14,-1.1842378929335002e-15,29.05,28.71,28.9175,28.955,28.71,0.12833062767710562,0.07000000000000028
1 -> 2,0.1945980000000001,0.1945979999999999,0.19459800000000002,0.19459800000000002,0.1945980000000001,9.100274040305112e-17,-9.25185853854297e-18,65.0,65.0,65.0,65.0,65.0,0.0,0.0,27.290000000000013,27.289999999999992,27.290000000000006,27.290000000000006,27.290000000000013,1.020439314654103e-14,-1.1842378929335002e-15,28.65,27.79,28.1875,28.155,27.79,0.32483649733365827,-0.28666666666666646
1 -> 2,0.1945980000000001,0.1945979999999999,0.19459800000000002,0.19459800000000002,0.1945980000000001,9.100274040305112e-17,-9.25185853854297e-18,65.0,65.0,65.0,65.0,65.0,0.0,0.0,27.290000000000013,27.289999999999992,27.290000000000006,27.290000000000006,27.290000000000013,1.020439314654103e-14,-1.1842378929335002e-15,28.65,27.79,28.1875,28.155,27.79,0.32483649733365827,-0.28666666666666646
1 -> 2,0.1945980000000001,0.1945979999999999,0.19459800000000002,0.19459800000000002,0.1945980000000001,9.100274040305112e-17,-9.25185853854297e-18,65.0,65.0,65.0,65.0,65.0,0.0,0.0,27.290000000000013,27.289999999999992,27.290000000000006,27.290000000000006,27.290000000000013,1.020439314654103e-14,-1.1842378929335002e-15,27.63,24.81,26.552500000000002,26.884999999999998,24.81,1.0912006002564336,-0.9400000000000001
1 -> 2,0.1945980000000001,0.1945979999999999,0.19459800000000002,0.19459800000000002,0.1945980000000001,9.100274040305112e-17,-9.25185853854297e-18,65.0,65.0,65.0,65.0,65.0,0.0,0.0,27.290000000000013,27.289999999999992,27.290000000000006,27.290000000000006,27.290000000000013,1.020439314654103e-14,-1.1842378929335002e-15,27.63,24.81,26.552500000000002,26.884999999999998,24.81,1.0912006002564336,-0.9400000000000001
1 -> 2,0.19075700000000012,0.19075699999999995,0.19075700000000007,0.19075700000000007,0.19075700000000012,6.938893903907228e-17,2.7755575615628914e-17,65.0,65.0,65.0,65.0,65.0,0.0,0.0,27.290000000000013,27.289999999999992,27.290000000000006,27.290000000000006,27.290000000000013,1.020439314654103e-14,-1.1842378929335002e-15,22.19,10.95,16.685,16.8,10.95,4.207930013676559,-3.7466666666666675
1 -> 2,0.19075700000000012,0.19075699999999995,0.19075700000000007,0.19075700000000007,0.19075700000000012,6.938893903907228e-17,2.7755575615628914e-17,65.0,65.0,65.0,65.0,65.0,0.0,0.0,27.290000000000013,27.289999999999992,27.290000000000006,27.290000000000006,27.290000000000013,1.020439314654103e-14,-1.1842378929335002e-15,22.19,10.95,16.685,16.8,10.95,4.207930013676559,-3.7466666666666675
1 -> 2,0.19075700000000012,0.19075699999999995,0.19075700000000007,0.19075700000000007,0.19075700000000012,6.938893903907228e-17,2.7755575615628914e-17,65.0,65.0,65.0,65.0,65.0,0.0,0.0,27.290000000000013,27.289999999999992,27.290000000000006,27.290000000000006,27.290000000000013,1.020439314654103e-14,-1.1842378929335002e-15,7.29,-3.07,2.1574999999999998,2.205,-3.07,3.8520213849354468,-3.453333333333333
1 -> 2,0.19075700000000012,0.19075699999999995,0.19075700000000007,0.19075700000000007,0.19075700000000012,6.938893903907228e-17,2.7755575615628914e-17,65.0,65.0,65.0,65.0,65.0,0.0,0.0,27.290000000000013,27.289999999999992,27.290000000000006,27.290000000000006,27.290000000000013,1.020439314654103e-14,-1.1842378929335002e-15,7.29,-3.07,2.1574999999999998,2.205,-3.07,3.8520213849354468,-3.453333333333333
1 -> 2,0.19075700000000012,0.19075699999999995,0.19075700000000007,0.19075700000000007,0.19075700000000012,6.938893903907228e-17,2.7755575615628914e-17,65.0,65.0,65.0,65.0,65.0,0.0,0.0,27.290000000000013,27.289999999999992,27.290000000000006,27.290000000000006,27.290000000000013,1.020439314654103e-14,-1.1842378929335002e-15,-7.01,-19.74,-13.372499999999999,-13.370000000000001,-19.74,4.750565097964661,-4.243333333333333
1 -> 2,0.19075700000000012,0.19075699999999995,0.19075700000000007,0.19075700000000007,0.19075700000000012,6.938893903907228e-17,2.7755575615628914e-17,65.0,65.0,65.0,65.0,65.0,0.0,0.0,27.290000000000013,27.289999999999992,27.290000000000006,27.290000000000006,27.290000000000013,1.020439314654103e-14,-1.1842378929335002e-15,-7.01,-19.74,-13.372499999999999,-13.370000000000001,-19.74,4.750565097964661,-4.243333333333333
1 -> 2,0.19075700000000012,0.19075699999999995,0.19075700000000007,0.19075700000000007,0.19075700000000012,6.938893903907228e-17,2.7755575615628914e-17,65.0,65.0,65.0,65.0,65.0,0.0,0.0,27.290000000000013,27.289999999999992,27.290000000000006,27.290000000000006,27.290000000000013,1.020439314654103e-14,-1.1842378929335002e-15,-23.99,-40.03,-31.6,-31.189999999999998,-40.03,5.982202771554974,-5.346666666666668
1 -> 2,0.19075700000000012,0.19075699999999995,0.19075700000000007,0.19075700000000007,0.19075700000000012,6.938893903907228e-17,2.7755575615628914e-17,65.0,65.0,65.0,65.0,65.0,0.0,0.0,27.290000000000013,27.289999999999992,27.290000000000006,27.290000000000006,27.290000000000013,1.020439314654103e-14,-1.1842378929335002e-15,-23.99,-40.03,-31.6,-31.189999999999998,-40.03,5.982202771554974,-5.346666666666668
1 -> 2,0.1945980000000001,0.1945979999999999,0.19459800000000002,0.19459800000000002,0.1945980000000001,9.100274040305112e-17,-9.25185853854297e-18,65.73,65.73,65.73,65.73,65.73,0.0,0.0,27.290000000000013,27.289999999999992,27.290000000000006,27.290000000000006,27.290000000000013,1.020439314654103e-14,-1.1842378929335002e-15,-47.07,-66.35,-57.2775,-57.845,-66.35,7.249128826969485,-6.426666666666665
1 -> 2,0.1945980000000001,0.1945979999999999,0.19459800000000002,0.19459800000000002,0.1945980000000001,9.100274040305112e-17,-9.25185853854297e-18,65.73,65.73,65.73,65.73,65.73,0.0,0.0,27.290000000000013,27.289999999999992,27.290000000000006,27.290000000000006,27.290000000000013,1.020439314654103e-14,-1.1842378929335002e-15,-47.07,-66.35,-57.2775,-57.845,-66.35,7.249128826969485,-6.426666666666665
