PHASE,EDA_MAX,EDA_MIN,EDA_MEAN,EDA_MEDIAN,EDA_MODE,EDA_SD,HR_MAX,HR_MIN,HR_MEAN,HR_MEDIAN,HR_MODE,HR_SD,SKT_MAX,SKT_MIN,SKT_MEAN,SKT_MEDIAN,SKT_MODE,SKT_SD,BVP_MAX,BVP_MIN,BVP_MEAN,BVP_MEDIAN,BVP_MODE,BVP_SD
1 -> 2,1.563528000000001,1.5635279999999991,1.5635280000000003,1.5635280000000003,1.563528000000001,8.527784864785346e-16,76.0,76.0,76.0,76.0,76.0,0.0,35.16000000000001,35.15999999999998,35.16,35.16,35.16000000000001,1.2809491335957507e-14,14.05,7.4,10.4875,10.25,7.4,2.5037309659785736
1 -> 2,1.563528000000001,1.5635279999999991,1.5635280000000003,1.5635280000000003,1.563528000000001,8.527784864785346e-16,76.0,76.0,76.0,76.0,76.0,0.0,35.16000000000001,35.15999999999998,35.16,35.16,35.16000000000001,1.2809491335957507e-14,14.05,7.4,10.4875,10.25,7.4,2.5037309659785736
1 -> 2,1.563528000000001,1.5635279999999991,1.5635280000000003,1.5635280000000003,1.563528000000001,8.527784864785346e-16,76.0,76.0,76.0,76.0,76.0,0.0,35.16000000000001,35.15999999999998,35.16,35.16,35.16000000000001,1.2809491335957507e-14,18.08,16.43,17.26,17.265,16.43,0.7537572553547992
1 -> 2,1.563528000000001,1.5635279999999991,1.5635280000000003,1.5635280000000003,1.563528000000001,8.527784864785346e-16,76.0,76.0,76.0,76.0,76.0,0.0,35.16000000000001,35.15999999999998,35.16,35.16,35.16000000000001,1.2809491335957507e-14,18.08,16.43,17.26,17.265,16.43,0.7537572553547992
1 -> 2,1.563528000000001,1.5635279999999991,1.5635280000000003,1.5635280000000003,1.563528000000001,8.527784864785346e-16,76.0,76.0,76.0,76.0,76.0,0.0,35.16000000000001,35.15999999999998,35.16,35.16,35.16000000000001,1.2809491335957507e-14,13.6,0.89,7.265,7.285,0.89,4.763509735478663
1 -> 2,1.563528000000001,1.5635279999999991,1.5635280000000003,1.5635280000000003,1.563528000000001,8.527784864785346e-16,76.0,76.0,76.0,76.0,76.0,0.0,35.16000000000001,35.15999999999998,35.16,35.16,35.16000000000001,1.2809491335957507e-14,13.6,0.89,7.265,7.285,0.89,4.763509735478663
1 -> 2,1.563528000000001,1.5635279999999991,1.5635280000000003,1.5635280000000003,1.563528000000001,8.527784864785346e-16,76.0,76.0,76.0,76.0,76.0,0.0,35.16000000000001,35.15999999999998,35.16,35.16,35.16000000000001,1.2809491335957507e-14,-2.44,-6.72,-4.99,-5.4,-6.72,1.637788142587435
1 -> 2,1.563528000000001,1.5635279999999991,1.5635280000000003,1.5635280000000003,1.563528000000001,8.527784864785346e-16,76.0,76.0,76.0,76.0,76.0,0.0,35.16000000000001,35.15999999999998,35.16,35.16,35.16000000000001,1.2809491335957507e-14,-2.44,-6.72,-4.99,-5.4,-6.72,1.637788142587435
1 -> 2,1.5648080000000009,1.5648079999999998,1.5648080000000004,1.5648080000000004,1.5648080000000009,5.087681048627601e-16,76.0,76.0,76.0,76.0,76.0,0.0,35.16000000000001,35.15999999999998,35.16,35.16,35.16000000000001,1.2809491335957507e-14,-5.25,-6.92,-6.2825,-6.48,-6.92,0.6512056126907998
1 -> 2,1.5648080000000009,1.5648079999999998,1.5648080000000004,1.5648080000000004,1.5648080000000009,5.087681048627601e-16,76.0,76.0,76.0,76.0,76.0,0.0,35.16000000000001,35.15999999999998,35.16,35.16,35.16000000000001,1.2809491335957507e-14,-5.25,-6.92,-6.2825,-6.48,-6.92,0.6512056126907998
1 -> 2,1.5648080000000009,1.5648079999999998,1.5648080000000004,1.5648080000000004,1.5648080000000009,5.087681048627601e-16,76.0,76.0,76.0,76.0,76.0,0.0,35.16000000000001,35.15999999999998,35.16,35.16,35.16000000000001,1.2809491335957507e-14,-1.61,-3.99,-2.53,-2.26,-3.99,0.9392550239418472
1 -> 2,1.5648080000000009,1.5648079999999998,1.5648080000000004,1.5648080000000004,1.5648080000000009,5.087681048627601e-16,76.0,76.0,76.0,76.0,76.0,0.0,35.16000000000001,35.15999999999998,35.16,35.16,35.16000000000001,1.2809491335957507e-14,-1.61,-3.99,-2.53,-2.26,-3.99,0.9392550239418472
1 -> 2,1.5648080000000009,1.5648079999999998,1.5648080000000004,1.5648080000000004,1.5648080000000009,5.087681048627601e-16,76.0,76.0,76.0,76.0,76.0,0.0,35.16000000000001,35.15999999999998,35.16,35.16,35.16000000000001,1.2809491335957507e-14,-2.23,-7.11,-4.535,-4.4,-7.11,1.8343459324783864
1 -> 2,1.5648080000000009,1.5648079999999998,1.5648080000000004,1.5648080000000004,1.5648080000000009,5.087681048627601e-16,76.0,76.0,76.0,76.0,76.0,0.0,35.16000000000001,35.15999999999998,35.16,35.16,35.16000000000001,1.2809491335957507e-14,-2.23,-7.11,-4.535,-4.4,-7.11,1.8343459324783864
1 -> 2,1.5648080000000009,1.5648079999999998,1.5648080000000004,1.5648080000000004,1.5648080000000009,5.087681048627601e-16,76.0,76.0,76.0,76.0,76.0,0.0,35.16000000000001,35.15999999999998,35.16,35.16,35.16000000000001,1.2809491335957507e-14,-8.97,-15.38,-12.05,-11.925,-15.38,2.386975073183631
1 -> 2,1.5648080000000009,1.5648079999999998,1.5648080000000004,1.5648080000000004,1.5648080000000009,5.087681048627601e-16,76.0,76.0,76.0,76.0,76.0,0.0,35.16000000000001,35.15999999999998,35.16,35.16,35.16000000000001,1.2809491335957507e-14,-8.97,-15.38,-12.05,-11.925,-15.38,2.386975073183631
1 -> 2,1.572489000000001,1.5724889999999998,1.5724890000000005,1.5724890000000005,1.5724889999999998,5.661048867003676e-16,76.0,76.0,76.0,76.0,76.0,0.0,35.16000000000001,35.15999999999998,35.16,35.16,35.16000000000001,1.2809491335957507e-14,-18.07,-26.09,-22.195,-22.310000000000002,-26.09,3.0009123612661535
1 -> 2,1.572489000000001,1.5724889999999998,1.5724890000000005,1.5724890000000005,1.5724889999999998,5.661048867003676e-16,76.0,76.0,76.0,76.0,76.0,0.0,35.16000000000001,35.15999999999998,35.16,35.16,35.16000000000001,1.2809491335957507e-14,-18.07,-26.09,-22.195,-22.310000000000002,-26.09,3.0009123612661535
1 -> 2,1.572489000000001,1.5724889999999998,1.5724890000000005,1.5724890000000005,1.5724889999999998,5.661048867003676e-16,76.0,76.0,76.0,76.0,76.0,0.0,35.16000000000001,35.15999999999998,35.16,35.16,35.16000000000001,1.2809491335957507e-14,-27.89,-29.36,-28.83,-29.034999999999997,-29.36,0.559598070046707
1 -> 2,1.572489000000001,1.5724889999999998,1.5724890000000005,1.5724890000000005,1.5724889999999998,5.661048867003676e-16,76.0,76.0,76.0,76.0,76.0,0.0,35.16000000000001,35.15999999999998,35.16,35.16,35.16000000000001,1.2809491335957507e-14,-27.89,-29.36,-28.83,-29.034999999999997,-29.36,0.559598070046707
1 -> 2,1.572489000000001,1.5724889999999998,1.5724890000000005,1.5724890000000005,1.5724889999999998,5.661048867003676e-16,76.0,76.0,76.0,76.0,76.0,0.0,35.16000000000001,35.15999999999998,35.16,35.16,35.16000000000001,1.2809491335957507e-14,-24.5,-28.29,-26.465,-26.535,-28.29,1.4171891193485784
1 -> 2,1.572489000000001,1.5724889999999998,1.5724890000000005,1.5724890000000005,1.5724889999999998,5.661048867003676e-16,76.0,76.0,76.0,76.0,76.0,0.0,35.16000000000001,35.15999999999998,35.16,35.16,35.16000000000001,1.2809491335957507e-14,-24.5,-28.29,-26.465,-26.535,-28.29,1.4171891193485784
1 -> 2,1.572489000000001,1.5724889999999998,1.5724890000000005,1.5724890000000005,1.5724889999999998,5.661048867003676e-16,76.0,76.0,76.0,76.0,76.0,0.0,35.16000000000001,35.15999999999998,35.16,35.16,35.16000000000001,1.2809491335957507e-14,-17.2,-23.01,-20.240000000000002,-20.375,-23.01,2.1687208211293596
1 -> 2,1.572489000000001,1.5724889999999998,1.5724890000000005,1.5724890000000005,1.5724889999999998,5.661048867003676e-16,76.0,76.0,76.0,76.0,76.0,0.0,35.16000000000001,35.15999999999998,35.16,35.16,35.16000000000001,1.2809491335957507e-14,-17.2,-23.01,-20.240000000000002,-20.375,-23.01,2.1687208211293596
1 -> 2,1.5788900000000008,1.57889,1.5788900000000003,1.5788900000000003,1.5788900000000008,4.002966042486721e-16,76.0,76.0,76.0,76.0,76.0,0.0,35.16000000000001,35.15999999999998,35.16,35.16,35.16000000000001,1.2809491335957507e-14,-7.8,-14.79,-11.222499999999998,-11.15,-14.79,2.6094000747298214
1 -> 2,1.5788900000000008,1.57889,1.5788900000000003,1.5788900000000003,1.5788900000000008,4.002966042486721e-16,76.0,76.0,76.0,76.0,76.0,0.0,35.16000000000001,35.15999999999998,35.16,35.16,35.16000000000001,1.2809491335957507e-14,-7.8,-14.79,-11.222499999999998,-11.15,-14.79,2.6094000747298214
1 -> 2,1.5788900000000008,1.57889,1.5788900000000003,1.5788900000000003,1.5788900000000008,4.002966042486721e-16,76.0,76.0,76.0,76.0,76.0,0.0,35.16000000000001,35.15999999999998,35.16,35.16,35.16000000000001,1.2809491335957507e-14,0.27,-5.77,-2.7750000000000004,-2.8,-5.77,2.2496277469839314
1 -> 2,1.5788900000000008,1.57889,1.5788900000000003,1.5788900000000003,1.5788900000000008,4.002966042486721e-16,76.0,76.0,76.0,76.0,76.0,0.0,35.16000000000001,35.15999999999998,35.16,35.16,35.16000000000001,1.2809491335957507e-14,0.27,-5.77,-2.7750000000000004,-2.8,-5.77,2.2496277469839314
1 -> 2,1.5788900000000008,1.57889,1.5788900000000003,1.5788900000000003,1.5788900000000008,4.002966042486721e-16,76.0,76.0,76.0,76.0,76.0,0.0,35.16000000000001,35.15999999999998,35.16,35.16,35.16000000000001,1.2809491335957507e-14,9.41,2.4,5.8175,5.73,2.4,2.6098694890741188
1 -> 2,1.5788900000000008,1.57889,1.5788900000000003,1.5788900000000003,1.5788900000000008,4.002966042486721e-16,76.0,76.0,76.0,76.0,76.0,0.0,35.16000000000001,35.15999999999998,35.16,35.16,35.16000000000001,1.2809491335957507e-14,9.41,2.4,5.8175,5.73,2.4,2.6098694890741188
1 -> 2,1.5788900000000008,1.57889,1.5788900000000003,1.5788900000000003,1.5788900000000008,4.002966042486721e-16,76.0,76.0,76.0,76.0,76.0,0.0,35.16000000000001,35.15999999999998,35.16,35.16,35.16000000000001,1.2809491335957507e-14,22.7,12.27,17.38,17.275,12.27,3.8944511808469233
1 -> 2,1.5788900000000008,1.57889,1.5788900000000003,1.5788900000000003,1.5788900000000008,4.002966042486721e-16,76.0,76.0,76.0,76.0,76.0,0.0,35.16000000000001,35.15999999999998,35.16,35.16,35.16000000000001,1.2809491335957507e-14,22.7,12.27,17.38,17.275,12.27,3.8944511808469233
1 -> 2,1.575050000000001,1.5750499999999998,1.5750500000000005,1.5750500000000005,1.575050000000001,4.710277376051325e-16,80.5,80.5,80.5,80.5,80.5,0.0,35.15000000000001,35.149999999999984,35.150000000000006,35.150000000000006,35.15000000000001,1.3759600911837627e-14,33.49,26.22,30.230000000000004,30.605,26.22,2.7449499084682776
1 -> 2,1.575050000000001,1.5750499999999998,1.5750500000000005,1.5750500000000005,1.575050000000001,4.710277376051325e-16,80.5,80.5,80.5,80.5,80.5,0.0,35.15000000000001,35.149999999999984,35.150000000000006,35.150000000000006,35.15000000000001,1.3759600911837627e-14,33.49,26.22,30.230000000000004,30.605,26.22,2.7449499084682776
1 -> 2,1.575050000000001,1.5750499999999998,1.5750500000000005,1.5750500000000005,1.575050000000001,4.710277376051325e-16,80.5,80.5,80.5,80.5,80.5,0.0,35.15000000000001,35.149999999999984,35.150000000000006,35.150000000000006,35.15000000000001,1.3759600911837627e-14,34.06,28.66,31.915,32.47,28.66,2.0941525732381585
1 -> 2,1.575050000000001,1.5750499999999998,1.5750500000000005,1.5750500000000005,1.575050000000001,4.710277376051325e-16,80.5,80.5,80.5,80.5,80.5,0.0,35.15000000000001,35.149999999999984,35.150000000000006,35.150000000000006,35.15000000000001,1.3759600911837627e-14,34.06,28.66,31.915,32.47,28.66,2.0941525732381585
1 -> 2,1.575050000000001,1.5750499999999998,1.5750500000000005,1.5750500000000005,1.575050000000001,4.710277376051325e-16,80.5,80.5,80.5,80.5,80.5,0.0,35.15000000000001,35.149999999999984,35.150000000000006,35.150000000000006,35.15000000000001,1.3759600911837627e-14,25.17,16.85,20.5925,20.174999999999997,16.85,3.1487963970380815
1 -> 2,1.575050000000001,1.5750499999999998,1.5750500000000005,1.5750500000000005,1.575050000000001,4.710277376051325e-16,80.5,80.5,80.5,80.5,80.5,0.0,35.15000000000001,35.149999999999984,35.150000000000006,35.150000000000006,35.15000000000001,1.3759600911837627e-14,25.17,16.85,20.5925,20.174999999999997,16.85,3.1487963970380815
1 -> 2,1.575050000000001,1.5750499999999998,1.5750500000000005,1.5750500000000005,1.575050000000001,4.710277376051325e-16,80.5,80.5,80.5,80.5,80.5,0.0,35.15000000000001,35.149999999999984,35.150000000000006,35.150000000000006,35.15000000000001,1.3759600911837627e-14,22.72,16.42,19.08,18.59,16.42,2.416567814070194
1 -> 2,1.575050000000001,1.5750499999999998,1.5750500000000005,1.5750500000000005,1.575050000000001,4.710277376051325e-16,80.5,80.5,80.5,80.5,80.5,0.0,35.15000000000001,35.149999999999984,35.150000000000006,35.150000000000006,35.15000000000001,1.3759600911837627e-14,22.72,16.42,19.08,18.59,16.42,2.416567814070194
1 -> 2,1.5814510000000008,1.5814509999999988,1.581451,1.5814510000000004,1.5814510000000008,8.455206652451151e-16,80.5,80.5,80.5,80.5,80.5,0.0,35.15000000000001,35.149999999999984,35.150000000000006,35.150000000000006,35.15000000000001,1.3759600911837627e-14,28.76,25.76,27.48,27.7,25.76,1.1066164647247934
1 -> 2,1.5814510000000008,1.5814509999999988,1.581451,1.5814510000000004,1.5814510000000008,8.455206652451151e-16,80.5,80.5,80.5,80.5,80.5,0.0,35.15000000000001,35.149999999999984,35.150000000000006,35.150000000000006,35.15000000000001,1.3759600911837627e-14,28.76,25.76,27.48,27.7,25.76,1.1066164647247934
1 -> 2,1.5814510000000008,1.5814509999999988,1.581451,1.5814510000000004,1.5814510000000008,8.455206652451151e-16,80.5,80.5,80.5,80.5,80.5,0.0,35.15000000000001,35.149999999999984,35.150000000000006,35.150000000000006,35.15000000000001,1.3759600911837627e-14,23.56,-0.99,12.174999999999999,13.065,-0.99,9.21796750916383
1 -> 2,1.5814510000000008,1.5814509999999988,1.581451,1.5814510000000004,1.5814510000000008,8.455206652451151e-16,80.5,80.5,80.5,80.5,80.5,0.0,35.15000000000001,35.149999999999984,35.150000000000006,35.150000000000006,35.15000000000001,1.3759600911837627e-14,23.56,-0.99,12.174999999999999,13.065,-0.99,9.21796750916383
1 -> 2,1.5814510000000008,1.5814509999999988,1.581451,1.5814510000000004,1.5814510000000008,8.455206652451151e-16,80.5,80.5,80.5,80.5,80.5,0.0,35.15000000000001,35.149999999999984,35.150000000000006,35.150000000000006,35.15000000000001,1.3759600911837627e-14,-11.26,-33.36,-23.45,-24.59,-33.36,8.345480812990946
1 -> 2,1.5814510000000008,1.5814509999999988,1.581451,1.5814510000000004,1.5814510000000008,8.455206652451151e-16,80.5,80.5,80.5,80.5,80.5,0.0,35.15000000000001,35.149999999999984,35.150000000000006,35.150000000000006,35.15000000000001,1.3759600911837627e-14,-11.26,-33.36,-23.45,-24.59,-33.36,8.345480812990946
1 -> 2,1.5814510000000008,1.5814509999999988,1.581451,1.5814510000000004,1.5814510000000008,8.455206652451151e-16,80.5,80.5,80.5,80.5,80.5,0.0,35.15000000000001,35.149999999999984,35.150000000000006,35.150000000000006,35.15000000000001,1.3759600911837627e-14,-28.15,-35.32,-32.485,-33.235,-35.32,2.81187215214348
1 -> 2,1.5814510000000008,1.5814509999999988,1.581451,1.5814510000000004,1.5814510000000008,8.455206652451151e-16,80.5,80.5,80.5,80.5,80.5,0.0,35.15000000000001,35.149999999999984,35.150000000000006,35.150000000000006,35.15000000000001,1.3759600911837627e-14,-28.15,-35.32,-32.485,-33.235,-35.32,2.81187215214348
1 -> 2,1.5814510000000008,1.5814509999999988,1.581451,1.5814510000000004,1.5814510000000008,8.455206652451151e-16,80.5,80.5,80.5,80.5,80.5,0.0,35.15000000000001,35.149999999999984,35.150000000000006,35.150000000000006,35.15000000000001,1.3759600911837627e-14,-16.94,-24.3,-20.1675,-19.715,-24.3,2.7818283106618926
1 -> 2,1.5814510000000008,1.5814509999999988,1.581451,1.5814510000000004,1.5814510000000008,8.455206652451151e-16,80.5,80.5,80.5,80.5,80.5,0.0,35.15000000000001,35.149999999999984,35.150000000000006,35.150000000000006,35.15000000000001,1.3759600911837627e-14,-16.94,-24.3,-20.1675,-19.715,-24.3,2.7818283106618926
1 -> 2,1.5814510000000008,1.5814509999999988,1.581451,1.5814510000000004,1.5814510000000008,8.455206652451151e-16,80.5,80.5,80.5,80.5,80.5,0.0,35.15000000000001,35.149999999999984,35.150000000000006,35.150000000000006,35.15000000000001,1.3759600911837627e-14,-16.12,-16.45,-16.2775,-16.27,-16.45,0.11882234638316101
1 -> 2,1.5814510000000008,1.5814509999999988,1.581451,1.5814510000000004,1.5814510000000008,8.455206652451151e-16,80.5,80.5,80.5,80.5,80.5,0.0,35.15000000000001,35.149999999999984,35.150000000000006,35.150000000000006,35.15000000000001,1.3759600911837627e-14,-16.12,-16.45,-16.2775,-16.27,-16.45,0.11882234638316101
1 -> 2,1.5814510000000008,1.5814509999999988,1.581451,1.5814510000000004,1.5814510000000008,8.455206652451151e-16,80.5,80.5,80.5,80.5,80.5,0.0,35.15000000000001,35.149999999999984,35.150000000000006,35.150000000000006,35.15000000000001,1.3759600911837627e-14,-12.4,-16.26,-14.6,-14.870000000000001,-16.26,1.4673615777987377
1 -> 2,1.5814510000000008,1.5814509999999988,1.581451,1.5814510000000004,1.5814510000000008,8.455206652451151e-16,80.5,80.5,80.5,80.5,80.5,0.0,35.15000000000001,35.149999999999984,35.150000000000006,35.150000000000006,35.15000000000001,1.3759600911837627e-14,-12.4,-16.26,-14.6,-14.870000000000001,-16.26,1.4673615777987377
1 -> 2,1.5814510000000008,1.5814509999999988,1.581451,1.5814510000000004,1.5814510000000008,8.455206652451151e-16,80.5,80.5,80.5,80.5,80.5,0.0,35.15000000000001,35.149999999999984,35.150000000000006,35.150000000000006,35.15000000000001,1.3759600911837627e-14,-5.22,-10.32,-7.58,-7.39,-10.32,1.916911578555464
1 -> 2,1.5814510000000008,1.5814509999999988,1.581451,1.5814510000000004,1.5814510000000008,8.455206652451151e-16,80.5,80.5,80.5,80.5,80.5,0.0,35.15000000000001,35.149999999999984,35.150000000000006,35.150000000000006,35.15000000000001,1.3759600911837627e-14,-5.22,-10.32,-7.58,-7.39,-10.32,1.916911578555464
1 -> 2,1.5814510000000008,1.5814509999999988,1.581451,1.5814510000000004,1.5814510000000008,8.455206652451151e-16,80.5,80.5,80.5,80.5,80.5,0.0,35.15000000000001,35.149999999999984,35.150000000000006,35.150000000000006,35.15000000000001,1.3759600911837627e-14,-3.77,-4.43,-4.0225,-3.9450000000000003,-4.43,0.253118055460293
1 -> 2,1.5814510000000008,1.5814509999999988,1.581451,1.5814510000000004,1.5814510000000008,8.455206652451151e-16,80.5,80.5,80.5,80.5,80.5,0.0,35.15000000000001,35.149999999999984,35.150000000000006,35.150000000000006,35.15000000000001,1.3759600911837627e-14,-3.77,-4.43,-4.0225,-3.9450000000000003,-4.43,0.253118055460293
1 -> 2,1.5814510000000008,1.5814509999999988,1.581451,1.5814510000000004,1.5814510000000008,8.455206652451151e-16,80.5,80.5,80.5,80.5,80.5,0.0,35.15000000000001,35.149999999999984,35.150000000000006,35.150000000000006,35.15000000000001,1.3759600911837627e-14,-3.74,-5.48,-4.380000000000001,-4.15,-5.48,0.682019061317204
1 -> 2,1.5814510000000008,1.5814509999999988,1.581451,1.5814510000000004,1.5814510000000008,8.455206652451151e-16,80.5,80.5,80.5,80.5,80.5,0.0,35.15000000000001,35.149999999999984,35.150000000000006,35.150000000000006,35.15000000000001,1.3759600911837627e-14,-3.74,-5.48,-4.380000000000001,-4.15,-5.48,0.682019061317204
1 -> 2,1.5814510000000008,1.5814509999999988,1.581451,1.5814510000000004,1.5814510000000008,8.455206652451151e-16,80.5,80.5,80.5,80.5,80.5,0.0,35.15000000000001,35.149999999999984,35.150000000000006,35.150000000000006,35.15000000000001,1.3759600911837627e-14,-7.08,-12.58,-9.924999999999999,-10.02,-12.58,2.066512763086645
1 -> 2,1.5814510000000008,1.5814509999999988,1.581451,1.5814510000000004,1.5814510000000008,8.455206652451151e-16,80.5,80.5,80.5,80.5,80.5,0.0,35.15000000000001,35.149999999999984,35.150000000000006,35.150000000000006,35.15000000000001,1.3759600911837627e-14,-7.08,-12.58,-9.924999999999999,-10.02,-12.58,2.066512763086645
1 -> 2,1.5814510000000008,1.5814509999999988,1.581451,1.5814510000000004,1.5814510000000008,8.455206652451151e-16,80.5,80.5,80.5,80.5,80.5,0.0,35.15000000000001,35.149999999999984,35.150000000000006,35.150000000000006,35.15000000000001,1.3759600911837627e-14,-11.11,-13.44,-12.645,-13.015,-13.44,0.9495393620066522
1 -> 2,1.5814510000000008,1.5814509999999988,1.581451,1.5814510000000004,1.5814510000000008,8.455206652451151e-16,80.5,80.5,80.5,80.5,80.5,0.0,35.15000000000001,35.149999999999984,35.150000000000006,35.150000000000006,35.15000000000001,1.3759600911837627e-14,-11.11,-13.44,-12.645,-13.015,-13.44,0.9495393620066522
1 -> 2,1.582731000000001,1.582731,1.5827310000000006,1.5827310000000006,1.582731,4.440892098500626e-16,78.0,78.0,78.0,78.0,78.0,0.0,35.15000000000001,35.149999999999984,35.150000000000006,35.150000000000006,35.15000000000001,1.3759600911837627e-14,-3.19,-9.2,-6.1375,-6.08,-9.2,2.2469465391949135
1 -> 2,1.582731000000001,1.582731,1.5827310000000006,1.5827310000000006,1.582731,4.440892098500626e-16,78.0,78.0,78.0,78.0,78.0,0.0,35.15000000000001,35.149999999999984,35.150000000000006,35.150000000000006,35.15000000000001,1.3759600911837627e-14,-3.19,-9.2,-6.1375,-6.08,-9.2,2.2469465391949135
1 -> 2,1.582731000000001,1.582731,1.5827310000000006,1.5827310000000006,1.582731,4.440892098500626e-16,78.0,78.0,78.0,78.0,78.0,0.0,35.15000000000001,35.149999999999984,35.150000000000006,35.150000000000006,35.15000000000001,1.3759600911837627e-14,-0.49,-1.71,-0.9450000000000001,-0.79,-0.79,0.4583393938993243
1 -> 2,1.582731000000001,1.582731,1.5827310000000006,1.5827310000000006,1.582731,4.440892098500626e-16,78.0,78.0,78.0,78.0,78.0,0.0,35.15000000000001,35.149999999999984,35.150000000000006,35.150000000000006,35.15000000000001,1.3759600911837627e-14,-0.49,-1.71,-0.9450000000000001,-0.79,-0.79,0.4583393938993243
1 -> 2,1.582731000000001,1.582731,1.5827310000000006,1.5827310000000006,1.582731,4.440892098500626e-16,78.0,78.0,78.0,78.0,78.0,0.0,35.15000000000001,35.149999999999984,35.150000000000006,35.150000000000006,35.15000000000001,1.3759600911837627e-14,-1.49,-2.96,-2.3875,-2.55,-2.96,0.579412417885568
1 -> 2,1.582731000000001,1.582731,1.5827310000000006,1.5827310000000006,1.582731,4.440892098500626e-16,78.0,78.0,78.0,78.0,78.0,0.0,35.15000000000001,35.149999999999984,35.150000000000006,35.150000000000006,35.15000000000001,1.3759600911837627e-14,-1.49,-2.96,-2.3875,-2.55,-2.96,0.579412417885568
1 -> 2,1.582731000000001,1.582731,1.5827310000000006,1.5827310000000006,1.582731,4.440892098500626e-16,78.0,78.0,78.0,78.0,78.0,0.0,35.15000000000001,35.149999999999984,35.150000000000006,35.150000000000006,35.15000000000001,1.3759600911837627e-14,-0.93,-2.64,-1.7474999999999998,-1.71,-2.64,0.6466210250216119
1 -> 2,1.582731000000001,1.582731,1.5827310000000006,1.5827310000000006,1.582731,4.440892098500626e-16,78.0,78.0,78.0,78.0,78.0,0.0,35.15000000000001,35.149999999999984,35.150000000000006,35.150000000000006,35.15000000000001,1.3759600911837627e-14,-0.93,-2.64,-1.7474999999999998,-1.71,-2.64,0.6466210250216119
1 -> 2,1.5865710000000008,1.5865709999999993,1.5865710000000002,1.5865710000000002,1.5865710000000008,7.28021923224409e-16,78.0,78.0,78.0,78.0,78.0,0.0,35.15000000000001,35.149999999999984,35.150000000000006,35.150000000000006,35.15000000000001,1.3759600911837627e-14,-0.71,-0.76,-0.7375,-0.74,-0.76,0.022776083947860768
1 -> 2,1.5865710000000008,1.5865709999999993,1.5865710000000002,1.5865710000000002,1.5865710000000008,7.28021923224409e-16,78.0,78.0,78.0,78.0,78.0,0.0,35.15000000000001,35.149999999999984,35.150000000000006,35.150000000000006,35.15000000000001,1.3759600911837627e-14,-0.71,-0.76,-0.7375,-0.74,-0.76,0.022776083947860768
1 -> 2,1.5865710000000008,1.5865709999999993,1.5865710000000002,1.5865710000000002,1.5865710000000008,7.28021923224409e-16,78.0,78.0,78.0,78.0,78.0,0.0,35.15000000000001,35.149999999999984,35.150000000000006,35.150000000000006,35.15000000000001,1.3759600911837627e-14,-0.62,-0.81,-0.6900000000000001,-0.665,-0.81,0.07382411530116703
1 -> 2,1.5865710000000008,1.5865709999999993,1.5865710000000002,1.5865710000000002,1.5865710000000008,7.28021923224409e-16,78.0,78.0,78.0,78.0,78.0,0.0,35.15000000000001,35.149999999999984,35.150000000000006,35.150000000000006,35.15000000000001,1.3759600911837627e-14,-0.62,-0.81,-0.6900000000000001,-0.665,-0.81,0.07382411530116703
1 -> 2,1.5865710000000008,1.5865709999999993,1.5865710000000002,1.5865710000000002,1.5865710000000008,7.28021923224409e-16,78.0,78.0,78.0,78.0,78.0,0.0,35.15000000000001,35.149999999999984,35.150000000000006,35.150000000000006,35.15000000000001,1.3759600911837627e-14,-1.08,-1.5,-1.355,-1.42,-1.5,0.1694845125667829
1 -> 2,1.5865710000000008,1.5865709999999993,1.5865710000000002,1.5865710000000002,1.5865710000000008,7.28021923224409e-16,78.0,78.0,78.0,78.0,78.0,0.0,35.15000000000001,35.149999999999984,35.150000000000006,35.150000000000006,35.15000000000001,1.3759600911837627e-14,-1.08,-1.5,-1.355,-1.42,-1.5,0.1694845125667829
1 -> 2,1.5865710000000008,1.5865709999999993,1.5865710000000002,1.5865710000000002,1.5865710000000008,7.28021923224409e-16,78.0,78.0,78.0,78.0,78.0,0.0,35.15000000000001,35.149999999999984,35.150000000000006,35.150000000000006,35.15000000000001,1.3759600911837627e-14,-0.82,-1.35,-1.0825,-1.08,-1.35,0.19791096483014783
1 -> 2,1.5865710000000008,1.5865709999999993,1.5865710000000002,1.5865710000000002,1.5865710000000008,7.28021923224409e-16,78.0,78.0,78.0,78.0,78.0,0.0,35.15000000000001,35.149999999999984,35.150000000000006,35.150000000000006,35.15000000000001,1.3759600911837627e-14,-0.82,-1.35,-1.0825,-1.08,-1.35,0.19791096483014783
1 -> 2,1.5891320000000009,1.5891319999999993,1.5891320000000002,1.5891320000000002,1.5891320000000009,6.843874359417885e-16,78.0,78.0,78.0,78.0,78.0,0.0,35.15000000000001,35.149999999999984,35.150000000000006,35.150000000000006,35.15000000000001,1.3759600911837627e-14,0.96,-0.61,0.0875,0.0,-0.61,0.5912433931977591
1 -> 2,1.5891320000000009,1.5891319999999993,1.5891320000000002,1.5891320000000002,1.5891320000000009,6.843874359417885e-16,78.0,78.0,78.0,78.0,78.0,0.0,35.15000000000001,35.149999999999984,35.150000000000006,35.150000000000006,35.15000000000001,1.3759600911837627e-14,0.96,-0.61,0.0875,0.0,-0.61,0.5912433931977591
1 -> 2,1.5891320000000009,1.5891319999999993,1.5891320000000002,1.5891320000000002,1.5891320000000009,6.843874359417885e-16,78.0,78.0,78.0,78.0,78.0,0.0,35.15000000000001,35.149999999999984,35.150000000000006,35.150000000000006,35.15000000000001,1.3759600911837627e-14,4.38,1.79,3.1025,3.12,1.79,0.9672738753838025
1 -> 2,1.5891320000000009,1.5891319999999993,1.5891320000000002,1.5891320000000002,1.5891320000000009,6.843874359417885e-16,78.0,78.0,78.0,78.0,78.0,0.0,35.15000000000001,35.149999999999984,35.150000000000006,35.150000000000006,35.15000000000001,1.3759600911837627e-14,4.38,1.79,3.1025,3.12,1.79,0.9672738753838025
1 -> 2,1.5891320000000009,1.5891319999999993,1.5891320000000002,1.5891320000000002,1.5891320000000009,6.843874359417885e-16,78.0,78.0,78.0,78.0,78.0,0.0,35.15000000000001,35.149999999999984,35.150000000000006,35.150000000000006,35.15000000000001,1.3759600911837627e-14,6.53,5.11,5.890000000000001,5.96,5.11,0.5345558904361638
1 -> 2,1.5891320000000009,1.5891319999999993,1.5891320000000002,1.5891320000000002,1.5891320000000009,6.843874359417885e-16,78.0,78.0,78.0,78.0,78.0,0.0,35.15000000000001,35.149999999999984,35.150000000000006,35.150000000000006,35.15000000000001,1.3759600911837627e-14,6.53,5.11,5.890000000000001,5.96,5.11,0.5345558904361638
1 -> 2,1.5891320000000009,1.5891319999999993,1.5891320000000002,1.5891320000000002,1.5891320000000009,6.843874359417885e-16,78.0,78.0,78.0,78.0,78.0,0.0,35.15000000000001,35.149999999999984,35.150000000000006,35.150000000000006,35.15000000000001,1.3759600911837627e-14,6.65,5.07,6.0425,6.225,5.07,0.6168214895737664
1 -> 2,1.5891320000000009,1.5891319999999993,1.5891320000000002,1.5891320000000002,1.5891320000000009,6.843874359417885e-16,78.0,78.0,78.0,78.0,78.0,0.0,35.15000000000001,35.149999999999984,35.150000000000006,35.150000000000006,35.15000000000001,1.3759600911837627e-14,6.65,5.07,6.0425,6.225,5.07,0.6168214895737664
1 -> 2,1.5865710000000008,1.5865709999999993,1.5865710000000002,1.5865710000000002,1.5865710000000008,7.28021923224409e-16,78.0,78.0,78.0,78.0,78.0,0.0,35.15000000000001,35.149999999999984,35.150000000000006,35.150000000000006,35.15000000000001,1.3759600911837627e-14,3.92,0.84,2.27,2.16,0.84,1.1591807451816996
1 -> 2,1.5865710000000008,1.5865709999999993,1.5865710000000002,1.5865710000000002,1.5865710000000008,7.28021923224409e-16,78.0,78.0,78.0,78.0,78.0,0.0,35.15000000000001,35.149999999999984,35.150000000000006,35.150000000000006,35.15000000000001,1.3759600911837627e-14,3.92,0.84,2.27,2.16,0.84,1.1591807451816996
1 -> 2,1.5865710000000008,1.5865709999999993,1.5865710000000002,1.5865710000000002,1.5865710000000008,7.28021923224409e-16,78.0,78.0,78.0,78.0,78.0,0.0,35.15000000000001,35.149999999999984,35.150000000000006,35.150000000000006,35.15000000000001,1.3759600911837627e-14,0.38,-0.08,0.12500000000000003,0.1,-0.08,0.1699264546796643
1 -> 2,1.5865710000000008,1.5865709999999993,1.5865710000000002,1.5865710000000002,1.5865710000000008,7.28021923224409e-16,78.0,78.0,78.0,78.0,78.0,0.0,35.15000000000001,35.149999999999984,35.150000000000006,35.150000000000006,35.15000000000001,1.3759600911837627e-14,0.38,-0.08,0.12500000000000003,0.1,-0.08,0.1699264546796643
1 -> 2,1.5865710000000008,1.5865709999999993,1.5865710000000002,1.5865710000000002,1.5865710000000008,7.28021923224409e-16,78.0,78.0,78.0,78.0,78.0,0.0,35.15000000000001,35.149999999999984,35.150000000000006,35.150000000000006,35.15000000000001,1.3759600911837627e-14,-0.22,-0.39,-0.32,-0.33499999999999996,-0.39,0.06284902544988268
1 -> 2,1.5865710000000008,1.5865709999999993,1.5865710000000002,1.5865710000000002,1.5865710000000008,7.28021923224409e-16,78.0,78.0,78.0,78.0,78.0,0.0,35.15000000000001,35.149999999999984,35.150000000000006,35.150000000000006,35.15000000000001,1.3759600911837627e-14,-0.22,-0.39,-0.32,-0.33499999999999996,-0.39,0.06284902544988268
1 -> 2,1.5865710000000008,1.5865709999999993,1.5865710000000002,1.5865710000000002,1.5865710000000008,7.28021923224409e-16,78.0,78.0,78.0,78.0,78.0,0.0,35.15000000000001,35.149999999999984,35.150000000000006,35.150000000000006,35.15000000000001,1.3759600911837627e-14,-0.06,-0.19,-0.125,-0.125,-0.19,0.06020797289396147
1 -> 2,1.5865710000000008,1.5865709999999993,1.5865710000000002,1.5865710000000002,1.5865710000000008,7.28021923224409e-16,78.0,78.0,78.0,78.0,78.0,0.0,35.15000000000001,35.149999999999984,35.150000000000006,35.150000000000006,35.15000000000001,1.3759600911837627e-14,-0.06,-0.19,-0.125,-0.125,-0.19,0.06020797289396147
1 -> 2,1.582731000000001,1.582731,1.5827310000000006,1.5827310000000006,1.582731,4.440892098500626e-16,72.25,72.25,72.25,72.25,72.25,0.0,35.15000000000001,35.149999999999984,35.150000000000006,35.150000000000006,35.15000000000001,1.3759600911837627e-14,-0.39,-0.93,-0.68,-0.7,-0.93,0.20223748416156687
1 -> 2,1.582731000000001,1.582731,1.5827310000000006,1.5827310000000006,1.582731,4.440892098500626e-16,72.25,72.25,72.25,72.25,72.25,0.0,35.15000000000001,35.149999999999984,35.150000000000006,35.150000000000006,35.15000000000001,1.3759600911837627e-14,-0.39,-0.93,-0.68,-0.7,-0.93,0.20223748416156687
1 -> 2,1.582731000000001,1.582731,1.5827310000000006,1.5827310000000006,1.582731,4.440892098500626e-16,72.25,72.25,72.25,72.25,72.25,0.0,35.15000000000001,35.149999999999984,35.150000000000006,35.150000000000006,35.15000000000001,1.3759600911837627e-14,-1.09,-2.13,-1.5625,-1.5150000000000001,-2.13,0.39315232416965307
1 -> 2,1.582731000000001,1.582731,1.5827310000000006,1.5827310000000006,1.582731,4.440892098500626e-16,72.25,72.25,72.25,72.25,72.25,0.0,35.15000000000001,35.149999999999984,35.150000000000006,35.150000000000006,35.15000000000001,1.3759600911837627e-14,-1.09,-2.13,-1.5625,-1.5150000000000001,-2.13,0.39315232416965307
1 -> 2,1.582731000000001,1.582731,1.5827310000000006,1.5827310000000006,1.582731,4.440892098500626e-16,72.25,72.25,72.25,72.25,72.25,0.0,35.15000000000001,35.149999999999984,35.150000000000006,35.150000000000006,35.15000000000001,1.3759600911837627e-14,-2.48,-2.74,-2.6125,-2.615,-2.74,0.11388041973930378
1 -> 2,1.582731000000001,1.582731,1.5827310000000006,1.5827310000000006,1.582731,4.440892098500626e-16,72.25,72.25,72.25,72.25,72.25,0.0,35.15000000000001,35.149999999999984,35.150000000000006,35.150000000000006,35.15000000000001,1.3759600911837627e-14,-2.48,-2.74,-2.6125,-2.615,-2.74,0.11388041973930378
1 -> 2,1.582731000000001,1.582731,1.5827310000000006,1.5827310000000006,1.582731,4.440892098500626e-16,72.25,72.25,72.25,72.25,72.25,0.0,35.15000000000001,35.149999999999984,35.150000000000006,35.150000000000006,35.15000000000001,1.3759600911837627e-14,-1.1,-2.14,-1.63,-1.6400000000000001,-2.14,0.38483762809787714
1 -> 2,1.582731000000001,1.582731,1.5827310000000006,1.5827310000000006,1.582731,4.440892098500626e-16,72.25,72.25,72.25,72.25,72.25,0.0,35.15000000000001,35.149999999999984,35.150000000000006,35.150000000000006,35.15000000000001,1.3759600911837627e-14,-1.1,-2.14,-1.63,-1.6400000000000001,-2.14,0.38483762809787714
1 -> 2,1.5891320000000009,1.5891319999999993,1.5891320000000002,1.5891320000000002,1.5891320000000009,6.843874359417885e-16,72.25,72.25,72.25,72.25,72.25,0.0,35.15000000000001,35.149999999999984,35.150000000000006,35.150000000000006,35.15000000000001,1.3759600911837627e-14,1.84,-0.57,0.6175,0.6,-0.57,0.9048584143389506
1 -> 2,1.5891320000000009,1.5891319999999993,1.5891320000000002,1.5891320000000002,1.5891320000000009,6.843874359417885e-16,72.25,72.25,72.25,72.25,72.25,0.0,35.15000000000001,35.149999999999984,35.150000000000006,35.150000000000006,35.15000000000001,1.3759600911837627e-14,1.84,-0.57,0.6175,0.6,-0.57,0.9048584143389506
1 -> 2,1.5891320000000009,1.5891319999999993,1.5891320000000002,1.5891320000000002,1.5891320000000009,6.843874359417885e-16,72.25,72.25,72.25,72.25,72.25,0.0,35.15000000000001,35.149999999999984,35.150000000000006,35.150000000000006,35.15000000000001,1.3759600911837627e-14,2.38,1.27,1.9899999999999998,2.155,1.27,0.445365018832867
1 -> 2,1.5891320000000009,1.5891319999999993,1.5891320000000002,1.5891320000000002,1.5891320000000009,6.843874359417885e-16,72.25,72.25,72.25,72.25,72.25,0.0,35.15000000000001,35.149999999999984,35.150000000000006,35.150000000000006,35.15000000000001,1.3759600911837627e-14,2.38,1.27,1.9899999999999998,2.155,1.27,0.445365018832867
1 -> 2,1.5891320000000009,1.5891319999999993,1.5891320000000002,1.5891320000000002,1.5891320000000009,6.843874359417885e-16,72.25,72.25,72.25,72.25,72.25,0.0,35.15000000000001,35.149999999999984,35.150000000000006,35.150000000000006,35.15000000000001,1.3759600911837627e-14,0.57,-0.06,0.17249999999999996,0.09,-0.06,0.23763154251908558
1 -> 2,1.5891320000000009,1.5891319999999993,1.5891320000000002,1.5891320000000002,1.5891320000000009,6.843874359417885e-16,72.25,72.25,72.25,72.25,72.25,0.0,35.15000000000001,35.149999999999984,35.150000000000006,35.150000000000006,35.15000000000001,1.3759600911837627e-14,0.57,-0.06,0.17249999999999996,0.09,-0.06,0.23763154251908558
1 -> 2,1.5891320000000009,1.5891319999999993,1.5891320000000002,1.5891320000000002,1.5891320000000009,6.843874359417885e-16,72.25,72.25,72.25,72.25,72.25,0.0,35.15000000000001,35.149999999999984,35.150000000000006,35.150000000000006,35.15000000000001,1.3759600911837627e-14,0.83,0.42,0.6699999999999999,0.715,0.42,0.15182226450688976
1 -> 2,1.5891320000000009,1.5891319999999993,1.5891320000000002,1.5891320000000002,1.5891320000000009,6.843874359417885e-16,72.25,72.25,72.25,72.25,72.25,0.0,35.15000000000001,35.149999999999984,35.150000000000006,35.150000000000006,35.15000000000001,1.3759600911837627e-14,0.83,0.42,0.6699999999999999,0.715,0.42,0.15182226450688976
1 -> 2,1.5904120000000008,1.5904119999999993,1.5904120000000002,1.5904120000000002,1.5904120000000008,7.28021923224409e-16,72.25,72.25,72.25,72.25,72.25,0.0,35.15000000000001,35.149999999999984,35.150000000000006,35.150000000000006,35.15000000000001,1.3759600911837627e-14,0.34,-2.11,-0.8099999999999999,-0.735,-2.11,0.9199184746487049
1 -> 2,1.5904120000000008,1.5904119999999993,1.5904120000000002,1.5904120000000002,1.5904120000000008,7.28021923224409e-16,72.25,72.25,72.25,72.25,72.25,0.0,35.15000000000001,35.149999999999984,35.150000000000006,35.150000000000006,35.15000000000001,1.3759600911837627e-14,0.34,-2.11,-0.8099999999999999,-0.735,-2.11,0.9199184746487049
1 -> 2,1.5904120000000008,1.5904119999999993,1.5904120000000002,1.5904120000000002,1.5904120000000008,7.28021923224409e-16,72.25,72.25,72.25,72.25,72.25,0.0,35.15000000000001,35.149999999999984,35.150000000000006,35.150000000000006,35.15000000000001,1.3759600911837627e-14,-2.91,-3.47,-3.2025,-3.215,-3.47,0.26808347580557823
1 -> 2,1.5904120000000008,1.5904119999999993,1.5904120000000002,1.5904120000000002,1.5904120000000008,7.28021923224409e-16,72.25,72.25,72.25,72.25,72.25,0.0,35.15000000000001,35.149999999999984,35.150000000000006,35.150000000000006,35.15000000000001,1.3759600911837627e-14,-2.91,-3.47,-3.2025,-3.215,-3.47,0.26808347580557823
1 -> 2,1.5904120000000008,1.5904119999999993,1.5904120000000002,1.5904120000000002,1.5904120000000008,7.28021923224409e-16,72.25,72.25,72.25,72.25,72.25,0.0,35.15000000000001,35.149999999999984,35.150000000000006,35.150000000000006,35.15000000000001,1.3759600911837627e-14,-0.01,-1.94,-0.7575,-0.54,-1.94,0.7624754094395438
1 -> 2,1.5904120000000008,1.5904119999999993,1.5904120000000002,1.5904120000000002,1.5904120000000008,7.28021923224409e-16,72.25,72.25,72.25,72.25,72.25,0.0,35.15000000000001,35.149999999999984,35.150000000000006,35.150000000000006,35.15000000000001,1.3759600911837627e-14,-0.01,-1.94,-0.7575,-0.54,-1.94,0.7624754094395438
1 -> 2,1.5904120000000008,1.5904119999999993,1.5904120000000002,1.5904120000000002,1.5904120000000008,7.28021923224409e-16,72.25,72.25,72.25,72.25,72.25,0.0,35.15000000000001,35.149999999999984,35.150000000000006,35.150000000000006,35.15000000000001,1.3759600911837627e-14,-0.49,-3.69,-2.0675,-2.045,-3.69,1.2048314197430277
1 -> 2,1.5904120000000008,1.5904119999999993,1.5904120000000002,1.5904120000000002,1.5904120000000008,7.28021923224409e-16,72.25,72.25,72.25,72.25,72.25,0.0,35.15000000000001,35.149999999999984,35.150000000000006,35.150000000000006,35.15000000000001,1.3759600911837627e-14,-0.49,-3.69,-2.0675,-2.045,-3.69,1.2048314197430277
1 -> 2,1.595533000000001,1.595533,1.5955330000000005,1.5955330000000005,1.595533,4.440892098500626e-16,72.25,72.25,72.25,72.25,72.25,0.0,35.15000000000001,35.149999999999984,35.150000000000006,35.150000000000006,35.15000000000001,1.3759600911837627e-14,-3.32,-4.56,-4.115,-4.29,-4.56,0.4763139720814412
1 -> 2,1.595533000000001,1.595533,1.5955330000000005,1.5955330000000005,1.595533,4.440892098500626e-16,72.25,72.25,72.25,72.25,72.25,0.0,35.15000000000001,35.149999999999984,35.150000000000006,35.150000000000006,35.15000000000001,1.3759600911837627e-14,-3.32,-4.56,-4.115,-4.29,-4.56,0.4763139720814412
1 -> 2,1.595533000000001,1.595533,1.5955330000000005,1.5955330000000005,1.595533,4.440892098500626e-16,72.25,72.25,72.25,72.25,72.25,0.0,35.15000000000001,35.149999999999984,35.150000000000006,35.150000000000006,35.15000000000001,1.3759600911837627e-14,3.35,-1.97,0.6675,0.645,-1.97,1.9915116745829036
1 -> 2,1.595533000000001,1.595533,1.5955330000000005,1.5955330000000005,1.595533,4.440892098500626e-16,72.25,72.25,72.25,72.25,72.25,0.0,35.15000000000001,35.149999999999984,35.150000000000006,35.150000000000006,35.15000000000001,1.3759600911837627e-14,3.35,-1.97,0.6675,0.645,-1.97,1.9915116745829036
1 -> 2,1.595533000000001,1.595533,1.5955330000000005,1.5955330000000005,1.595533,4.440892098500626e-16,72.25,72.25,72.25,72.25,72.25,0.0,35.15000000000001,35.149999999999984,35.150000000000006,35.150000000000006,35.15000000000001,1.3759600911837627e-14,5.99,4.8,5.5375,5.68,4.8,0.44471198544676094
1 -> 2,1.595533000000001,1.595533,1.5955330000000005,1.5955330000000005,1.595533,4.440892098500626e-16,72.25,72.25,72.25,72.25,72.25,0.0,35.15000000000001,35.149999999999984,35.150000000000006,35.150000000000006,35.15000000000001,1.3759600911837627e-14,5.99,4.8,5.5375,5.68,4.8,0.44471198544676094
1 -> 2,1.595533000000001,1.595533,1.5955330000000005,1.5955330000000005,1.595533,4.440892098500626e-16,72.25,72.25,72.25,72.25,72.25,0.0,35.15000000000001,35.149999999999984,35.150000000000006,35.150000000000006,35.15000000000001,1.3759600911837627e-14,4.88,2.21,3.4775,3.41,2.21,1.0054196884883446
1 -> 2,1.595533000000001,1.595533,1.5955330000000005,1.5955330000000005,1.595533,4.440892098500626e-16,72.25,72.25,72.25,72.25,72.25,0.0,35.15000000000001,35.149999999999984,35.150000000000006,35.150000000000006,35.15000000000001,1.3759600911837627e-14,4.88,2.21,3.4775,3.41,2.21,1.0054196884883446
1 -> 2,1.591692000000001,1.5916919999999994,1.5916920000000006,1.5916920000000008,1.591692000000001,6.377745716588144e-16,68.8,68.8,68.8,68.8,68.8,0.0,35.15000000000001,35.149999999999984,35.150000000000006,35.150000000000006,35.15000000000001,1.3759600911837627e-14,2.28,1.76,1.955,1.8900000000000001,1.76,0.201183995387307
1 -> 2,1.591692000000001,1.5916919999999994,1.5916920000000006,1.5916920000000008,1.591692000000001,6.377745716588144e-16,68.8,68.8,68.8,68.8,68.8,0.0,35.15000000000001,35.149999999999984,35.150000000000006,35.150000000000006,35.15000000000001,1.3759600911837627e-14,2.28,1.76,1.955,1.8900000000000001,1.76,0.201183995387307
1 -> 2,1.591692000000001,1.5916919999999994,1.5916920000000006,1.5916920000000008,1.591692000000001,6.377745716588144e-16,68.8,68.8,68.8,68.8,68.8,0.0,35.15000000000001,35.149999999999984,35.150000000000006,35.150000000000006,35.15000000000001,1.3759600911837627e-14,2.96,2.6,2.8375000000000004,2.895,2.6,0.14497844667397977
1 -> 2,1.591692000000001,1.5916919999999994,1.5916920000000006,1.5916920000000008,1.591692000000001,6.377745716588144e-16,68.8,68.8,68.8,68.8,68.8,0.0,35.15000000000001,35.149999999999984,35.150000000000006,35.150000000000006,35.15000000000001,1.3759600911837627e-14,2.96,2.6,2.8375000000000004,2.895,2.6,0.14497844667397977
1 -> 2,1.591692000000001,1.5916919999999994,1.5916920000000006,1.5916920000000008,1.591692000000001,6.377745716588144e-16,68.8,68.8,68.8,68.8,68.8,0.0,35.15000000000001,35.149999999999984,35.150000000000006,35.150000000000006,35.15000000000001,1.3759600911837627e-14,2.89,2.49,2.7025,2.715,2.49,0.14922717580923384
1 -> 2,1.591692000000001,1.5916919999999994,1.5916920000000006,1.5916920000000008,1.591692000000001,6.377745716588144e-16,68.8,68.8,68.8,68.8,68.8,0.0,35.15000000000001,35.149999999999984,35.150000000000006,35.150000000000006,35.15000000000001,1.3759600911837627e-14,2.89,2.49,2.7025,2.715,2.49,0.14922717580923384
1 -> 2,1.591692000000001,1.5916919999999994,1.5916920000000006,1.5916920000000008,1.591692000000001,6.377745716588144e-16,68.8,68.8,68.8,68.8,68.8,0.0,35.15000000000001,35.149999999999984,35.150000000000006,35.150000000000006,35.15000000000001,1.3759600911837627e-14,2.27,1.1,1.73,1.775,1.1,0.4383491758860737
1 -> 2,1.591692000000001,1.5916919999999994,1.5916920000000006,1.5916920000000008,1.591692000000001,6.377745716588144e-16,68.8,68.8,68.8,68.8,68.8,0.0,35.15000000000001,35.149999999999984,35.150000000000006,35.150000000000006,35.15000000000001,1.3759600911837627e-14,2.27,1.1,1.73,1.775,1.1,0.4383491758860737
1 -> 2,1.592972000000001,1.5929719999999998,1.5929720000000005,1.5929720000000005,1.5929719999999998,5.661048867003676e-16,68.8,68.8,68.8,68.8,68.8,0.0,35.15000000000001,35.149999999999984,35.150000000000006,35.150000000000006,35.15000000000001,1.3759600911837627e-14,0.53,-1.5,-0.46499999999999997,-0.445,-1.5,0.7583040287378144
1 -> 2,1.592972000000001,1.5929719999999998,1.5929720000000005,1.5929720000000005,1.5929719999999998,5.661048867003676e-16,68.8,68.8,68.8,68.8,68.8,0.0,35.15000000000001,35.149999999999984,35.150000000000006,35.150000000000006,35.15000000000001,1.3759600911837627e-14,0.53,-1.5,-0.46499999999999997,-0.445,-1.5,0.7583040287378144
1 -> 2,1.592972000000001,1.5929719999999998,1.5929720000000005,1.5929720000000005,1.5929719999999998,5.661048867003676e-16,68.8,68.8,68.8,68.8,68.8,0.0,35.15000000000001,35.149999999999984,35.150000000000006,35.150000000000006,35.15000000000001,1.3759600911837627e-14,-2.2,-3.75,-3.0500000000000003,-3.125,-3.75,0.5863019699779286
1 -> 2,1.592972000000001,1.5929719999999998,1.5929720000000005,1.5929720000000005,1.5929719999999998,5.661048867003676e-16,68.8,68.8,68.8,68.8,68.8,0.0,35.15000000000001,35.149999999999984,35.150000000000006,35.150000000000006,35.15000000000001,1.3759600911837627e-14,-2.2,-3.75,-3.0500000000000003,-3.125,-3.75,0.5863019699779286
1 -> 2,1.592972000000001,1.5929719999999998,1.5929720000000005,1.5929720000000005,1.5929719999999998,5.661048867003676e-16,68.8,68.8,68.8,68.8,68.8,0.0,35.15000000000001,35.149999999999984,35.150000000000006,35.150000000000006,35.15000000000001,1.3759600911837627e-14,-2.46,-3.86,-3.3,-3.4400000000000004,-3.86,0.5416641025580337
1 -> 2,1.592972000000001,1.5929719999999998,1.5929720000000005,1.5929720000000005,1.5929719999999998,5.661048867003676e-16,68.8,68.8,68.8,68.8,68.8,0.0,35.15000000000001,35.149999999999984,35.150000000000006,35.150000000000006,35.15000000000001,1.3759600911837627e-14,-2.46,-3.86,-3.3,-3.4400000000000004,-3.86,0.5416641025580337
1 -> 2,1.592972000000001,1.5929719999999998,1.5929720000000005,1.5929720000000005,1.5929719999999998,5.661048867003676e-16,68.8,68.8,68.8,68.8,68.8,0.0,35.15000000000001,35.149999999999984,35.150000000000006,35.150000000000006,35.15000000000001,1.3759600911837627e-14,1.94,-1.51,0.1975,0.18000000000000002,-1.51,1.2892512361832351
1 -> 2,1.592972000000001,1.5929719999999998,1.5929720000000005,1.5929720000000005,1.5929719999999998,5.661048867003676e-16,68.8,68.8,68.8,68.8,68.8,0.0,35.15000000000001,35.149999999999984,35.150000000000006,35.150000000000006,35.15000000000001,1.3759600911837627e-14,1.94,-1.51,0.1975,0.18000000000000002,-1.51,1.2892512361832351
1 -> 2,1.596813000000001,1.5968129999999994,1.5968130000000005,1.5968130000000007,1.596813000000001,6.377745716588144e-16,68.8,68.8,68.8,68.8,68.8,0.0,35.15000000000001,35.149999999999984,35.150000000000006,35.150000000000006,35.15000000000001,1.3759600911837627e-14,4.17,2.98,3.7625,3.95,2.98,0.48183892536821893
1 -> 2,1.596813000000001,1.5968129999999994,1.5968130000000005,1.5968130000000007,1.596813000000001,6.377745716588144e-16,68.8,68.8,68.8,68.8,68.8,0.0,35.15000000000001,35.149999999999984,35.150000000000006,35.150000000000006,35.15000000000001,1.3759600911837627e-14,4.17,2.98,3.7625,3.95,2.98,0.48183892536821893
1 -> 2,1.596813000000001,1.5968129999999994,1.5968130000000005,1.5968130000000007,1.596813000000001,6.377745716588144e-16,68.8,68.8,68.8,68.8,68.8,0.0,35.15000000000001,35.149999999999984,35.150000000000006,35.150000000000006,35.15000000000001,1.3759600911837627e-14,3.88,3.02,3.385,3.3200000000000003,3.02,0.330870065131314
1 -> 2,1.596813000000001,1.5968129999999994,1.5968130000000005,1.5968130000000007,1.596813000000001,6.377745716588144e-16,68.8,68.8,68.8,68.8,68.8,0.0,35.15000000000001,35.149999999999984,35.150000000000006,35.150000000000006,35.15000000000001,1.3759600911837627e-14,3.88,3.02,3.385,3.3200000000000003,3.02,0.330870065131314
1 -> 2,1.596813000000001,1.5968129999999994,1.5968130000000005,1.5968130000000007,1.596813000000001,6.377745716588144e-16,68.8,68.8,68.8,68.8,68.8,0.0,35.15000000000001,35.149999999999984,35.150000000000006,35.150000000000006,35.15000000000001,1.3759600911837627e-14,3.17,2.94,3.085,3.115,2.94,0.09233092656309698
1 -> 2,1.596813000000001,1.5968129999999994,1.5968130000000005,1.5968130000000007,1.596813000000001,6.377745716588144e-16,68.8,68.8,68.8,68.8,68.8,0.0,35.15000000000001,35.149999999999984,35.150000000000006,35.150000000000006,35.15000000000001,1.3759600911837627e-14,3.17,2.94,3.085,3.115,2.94,0.09233092656309698
1 -> 2,1.596813000000001,1.5968129999999994,1.5968130000000005,1.5968130000000007,1.596813000000001,6.377745716588144e-16,68.8,68.8,68.8,68.8,68.8,0.0,35.15000000000001,35.149999999999984,35.150000000000006,35.150000000000006,35.15000000000001,1.3759600911837627e-14,2.51,1.17,1.7774999999999999,1.7149999999999999,1.17,0.5082998622860329
1 -> 2,1.596813000000001,1.5968129999999994,1.5968130000000005,1.5968130000000007,1.596813000000001,6.377745716588144e-16,68.8,68.8,68.8,68.8,68.8,0.0,35.15000000000001,35.149999999999984,35.150000000000006,35.150000000000006,35.15000000000001,1.3759600911837627e-14,2.51,1.17,1.7774999999999999,1.7149999999999999,1.17,0.5082998622860329
1 -> 2,1.594252000000001,1.5942519999999991,1.5942520000000002,1.5942520000000004,1.594252000000001,7.611305586242616e-16,68.8,68.8,68.8,68.8,68.8,0.0,35.15000000000001,35.149999999999984,35.150000000000006,35.150000000000006,35.15000000000001,1.3759600911837627e-14,2.03,1.14,1.5575,1.53,1.14,0.33796264586489433
1 -> 2,1.594252000000001,1.5942519999999991,1.5942520000000002,1.5942520000000004,1.594252000000001,7.611305586242616e-16,68.8,68.8,68.8,68.8,68.8,0.0,35.15000000000001,35.149999999999984,35.150000000000006,35.150000000000006,35.15000000000001,1.3759600911837627e-14,2.03,1.14,1.5575,1.53,1.14,0.33796264586489433
1 -> 2,1.594252000000001,1.5942519999999991,1.5942520000000002,1.5942520000000004,1.594252000000001,7.611305586242616e-16,68.8,68.8,68.8,68.8,68.8,0.0,35.15000000000001,35.149999999999984,35.150000000000006,35.150000000000006,35.15000000000001,1.3759600911837627e-14,2.18,1.0,1.7225000000000001,1.855,1.0,0.4611060073345391
1 -> 2,1.594252000000001,1.5942519999999991,1.5942520000000002,1.5942520000000004,1.594252000000001,7.611305586242616e-16,68.8,68.8,68.8,68.8,68.8,0.0,35.15000000000001,35.149999999999984,35.150000000000006,35.150000000000006,35.15000000000001,1.3759600911837627e-14,2.18,1.0,1.7225000000000001,1.855,1.0,0.4611060073345391
1 -> 2,1.594252000000001,1.5942519999999991,1.5942520000000002,1.5942520000000004,1.594252000000001,7.611305586242616e-16,68.8,68.8,68.8,68.8,68.8,0.0,35.15000000000001,35.149999999999984,35.150000000000006,35.150000000000006,35.15000000000001,1.3759600911837627e-14,0.22,-2.13,-0.9824999999999999,-1.01,-2.13,0.878105204403208
1 -> 2,1.594252000000001,1.5942519999999991,1.5942520000000002,1.5942520000000004,1.594252000000001,7.611305586242616e-16,68.8,68.8,68.8,68.8,68.8,0.0,35.15000000000001,35.149999999999984,35.150000000000006,35.150000000000006,35.15000000000001,1.3759600911837627e-14,0.22,-2.13,-0.9824999999999999,-1.01,-2.13,0.878105204403208
1 -> 2,1.594252000000001,1.5942519999999991,1.5942520000000002,1.5942520000000004,1.594252000000001,7.611305586242616e-16,68.8,68.8,68.8,68.8,68.8,0.0,35.15000000000001,35.149999999999984,35.150000000000006,35.150000000000006,35.15000000000001,1.3759600911837627e-14,-2.71,-3.22,-3.0324999999999998,-3.1,-3.22,0.19305115902267986
1 -> 2,1.594252000000001,1.5942519999999991,1.5942520000000002,1.5942520000000004,1.594252000000001,7.611305586242616e-16,68.8,68.8,68.8,68.8,68.8,0.0,35.15000000000001,35.149999999999984,35.150000000000006,35.150000000000006,35.15000000000001,1.3759600911837627e-14,-2.71,-3.22,-3.0324999999999998,-3.1,-3.22,0.19305115902267986
1 -> 2,1.6032140000000008,1.6032139999999993,1.603214,1.603214,1.6032139999999993,7.850462293418876e-16,74.17,74.17,74.17,74.17,74.17,0.0,35.110000000000014,35.10999999999998,35.11,35.11,35.110000000000014,1.6280579355608324e-14,-1.99,-2.86,-2.4075,-2.39,-2.86,0.3258354646136604
1 -> 2,1.6032140000000008,1.6032139999999993,1.603214,1.603214,1.6032139999999993,7.850462293418876e-16,74.17,74.17,74.17,74.17,74.17,0.0,35.110000000000014,35.10999999999998,35.11,35.11,35.110000000000014,1.6280579355608324e-14,-1.99,-2.86,-2.4075,-2.39,-2.86,0.3258354646136604
1 -> 2,1.6032140000000008,1.6032139999999993,1.603214,1.603214,1.6032139999999993,7.850462293418876e-16,74.17,74.17,74.17,74.17,74.17,0.0,35.110000000000014,35.10999999999998,35.11,35.11,35.110000000000014,1.6280579355608324e-14,-0.15,-1.73,-1.0350000000000001,-1.13,-1.73,0.5957138574852863
1 -> 2,1.6032140000000008,1.6032139999999993,1.603214,1.603214,1.6032139999999993,7.850462293418876e-16,74.17,74.17,74.17,74.17,74.17,0.0,35.110000000000014,35.10999999999998,35.11,35.11,35.110000000000014,1.6280579355608324e-14,-0.15,-1.73,-1.0350000000000001,-1.13,-1.73,0.5957138574852863
1 -> 2,1.6032140000000008,1.6032139999999993,1.603214,1.603214,1.6032139999999993,7.850462293418876e-16,74.17,74.17,74.17,74.17,74.17,0.0,35.110000000000014,35.10999999999998,35.11,35.11,35.110000000000014,1.6280579355608324e-14,3.0,0.72,1.94,2.02,0.72,0.8580209787645054
1 -> 2,1.6032140000000008,1.6032139999999993,1.603214,1.603214,1.6032139999999993,7.850462293418876e-16,74.17,74.17,74.17,74.17,74.17,0.0,35.110000000000014,35.10999999999998,35.11,35.11,35.110000000000014,1.6280579355608324e-14,3.0,0.72,1.94,2.02,0.72,0.8580209787645054
1 -> 2,1.6032140000000008,1.6032139999999993,1.603214,1.603214,1.6032139999999993,7.850462293418876e-16,74.17,74.17,74.17,74.17,74.17,0.0,35.110000000000014,35.10999999999998,35.11,35.11,35.110000000000014,1.6280579355608324e-14,3.39,3.1,3.275,3.3049999999999997,3.1,0.10735455276791941
1 -> 2,1.6032140000000008,1.6032139999999993,1.603214,1.603214,1.6032139999999993,7.850462293418876e-16,74.17,74.17,74.17,74.17,74.17,0.0,35.110000000000014,35.10999999999998,35.11,35.11,35.110000000000014,1.6280579355608324e-14,3.39,3.1,3.275,3.3049999999999997,3.1,0.10735455276791941
1 -> 2,1.614735000000001,1.6147350000000003,1.614735000000001,1.614735000000001,1.614735000000001,3.3306690738754696e-16,74.17,74.17,74.17,74.17,74.17,0.0,35.110000000000014,35.10999999999998,35.11,35.11,35.110000000000014,1.6280579355608324e-14,2.91,2.61,2.735,2.71,2.61,0.11456439237389605
1 -> 2,1.614735000000001,1.6147350000000003,1.614735000000001,1.614735000000001,1.614735000000001,3.3306690738754696e-16,74.17,74.17,74.17,74.17,74.17,0.0,35.110000000000014,35.10999999999998,35.11,35.11,35.110000000000014,1.6280579355608324e-14,2.91,2.61,2.735,2.71,2.61,0.11456439237389605
1 -> 2,1.614735000000001,1.6147350000000003,1.614735000000001,1.614735000000001,1.614735000000001,3.3306690738754696e-16,74.17,74.17,74.17,74.17,74.17,0.0,35.110000000000014,35.10999999999998,35.11,35.11,35.110000000000014,1.6280579355608324e-14,2.59,2.33,2.495,2.5300000000000002,2.33,0.1023474474522935
1 -> 2,1.614735000000001,1.6147350000000003,1.614735000000001,1.614735000000001,1.614735000000001,3.3306690738754696e-16,74.17,74.17,74.17,74.17,74.17,0.0,35.110000000000014,35.10999999999998,35.11,35.11,35.110000000000014,1.6280579355608324e-14,2.59,2.33,2.495,2.5300000000000002,2.33,0.1023474474522935
1 -> 2,1.614735000000001,1.6147350000000003,1.614735000000001,1.614735000000001,1.614735000000001,3.3306690738754696e-16,74.17,74.17,74.17,74.17,74.17,0.0,35.110000000000014,35.10999999999998,35.11,35.11,35.110000000000014,1.6280579355608324e-14,2.09,1.33,1.6875,1.665,1.33,0.28603976996215047
1 -> 2,1.614735000000001,1.6147350000000003,1.614735000000001,1.614735000000001,1.614735000000001,3.3306690738754696e-16,74.17,74.17,74.17,74.17,74.17,0.0,35.110000000000014,35.10999999999998,35.11,35.11,35.110000000000014,1.6280579355608324e-14,2.09,1.33,1.6875,1.665,1.33,0.28603976996215047
1 -> 2,1.614735000000001,1.6147350000000003,1.614735000000001,1.614735000000001,1.614735000000001,3.3306690738754696e-16,74.17,74.17,74.17,74.17,74.17,0.0,35.110000000000014,35.10999999999998,35.11,35.11,35.110000000000014,1.6280579355608324e-14,1.21,0.85,1.0525,1.075,0.85,0.13497684986693087
1 -> 2,1.614735000000001,1.6147350000000003,1.614735000000001,1.614735000000001,1.614735000000001,3.3306690738754696e-16,74.17,74.17,74.17,74.17,74.17,0.0,35.110000000000014,35.10999999999998,35.11,35.11,35.110000000000014,1.6280579355608324e-14,1.21,0.85,1.0525,1.075,0.85,0.13497684986693087
1 -> 2,1.613455000000001,1.613454999999999,1.6134550000000003,1.6134550000000005,1.613455000000001,8.455206652451151e-16,74.17,74.17,74.17,74.17,74.17,0.0,35.110000000000014,35.10999999999998,35.11,35.11,35.110000000000014,1.6280579355608324e-14,0.62,-0.18,0.22750000000000004,0.235,-0.18,0.2964266351055519
1 -> 2,1.613455000000001,1.613454999999999,1.6134550000000003,1.6134550000000005,1.613455000000001,8.455206652451151e-16,74.17,74.17,74.17,74.17,74.17,0.0,35.110000000000014,35.10999999999998,35.11,35.11,35.110000000000014,1.6280579355608324e-14,0.62,-0.18,0.22750000000000004,0.235,-0.18,0.2964266351055519
1 -> 2,1.613455000000001,1.613454999999999,1.6134550000000003,1.6134550000000005,1.613455000000001,8.455206652451151e-16,74.17,74.17,74.17,74.17,74.17,0.0,35.110000000000014,35.10999999999998,35.11,35.11,35.110000000000014,1.6280579355608324e-14,-0.58,-2.84,-1.6275,-1.545,-2.84,0.8481560882290475
1 -> 2,1.613455000000001,1.613454999999999,1.6134550000000003,1.6134550000000005,1.613455000000001,8.455206652451151e-16,74.17,74.17,74.17,74.17,74.17,0.0,35.110000000000014,35.10999999999998,35.11,35.11,35.110000000000014,1.6280579355608324e-14,-0.58,-2.84,-1.6275,-1.545,-2.84,0.8481560882290475
1 -> 2,1.613455000000001,1.613454999999999,1.6134550000000003,1.6134550000000005,1.613455000000001,8.455206652451151e-16,74.17,74.17,74.17,74.17,74.17,0.0,35.110000000000014,35.10999999999998,35.11,35.11,35.110000000000014,1.6280579355608324e-14,-3.7,-4.5,-4.18,-4.26,-4.5,0.29605742686174913
1 -> 2,1.613455000000001,1.613454999999999,1.6134550000000003,1.6134550000000005,1.613455000000001,8.455206652451151e-16,74.17,74.17,74.17,74.17,74.17,0.0,35.110000000000014,35.10999999999998,35.11,35.11,35.110000000000014,1.6280579355608324e-14,-3.7,-4.5,-4.18,-4.26,-4.5,0.29605742686174913
1 -> 2,1.613455000000001,1.613454999999999,1.6134550000000003,1.6134550000000005,1.613455000000001,8.455206652451151e-16,74.17,74.17,74.17,74.17,74.17,0.0,35.110000000000014,35.10999999999998,35.11,35.11,35.110000000000014,1.6280579355608324e-14,-0.58,-3.53,-2.0599999999999996,-2.065,-3.53,1.1047397883664731
1 -> 2,1.613455000000001,1.613454999999999,1.6134550000000003,1.6134550000000005,1.613455000000001,8.455206652451151e-16,74.17,74.17,74.17,74.17,74.17,0.0,35.110000000000014,35.10999999999998,35.11,35.11,35.110000000000014,1.6280579355608324e-14,-0.58,-3.53,-2.0599999999999996,-2.065,-3.53,1.1047397883664731
1 -> 2,1.6108950000000009,1.6108949999999993,1.6108950000000002,1.6108950000000004,1.6108950000000009,6.568167990716596e-16,74.17,74.17,74.17,74.17,74.17,0.0,35.110000000000014,35.10999999999998,35.11,35.11,35.110000000000014,1.6280579355608324e-14,2.27,0.27,1.295,1.3199999999999998,0.27,0.7450335562912586
1 -> 2,1.6108950000000009,1.6108949999999993,1.6108950000000002,1.6108950000000004,1.6108950000000009,6.568167990716596e-16,74.17,74.17,74.17,74.17,74.17,0.0,35.110000000000014,35.10999999999998,35.11,35.11,35.110000000000014,1.6280579355608324e-14,2.27,0.27,1.295,1.3199999999999998,0.27,0.7450335562912586
1 -> 2,1.6108950000000009,1.6108949999999993,1.6108950000000002,1.6108950000000004,1.6108950000000009,6.568167990716596e-16,74.17,74.17,74.17,74.17,74.17,0.0,35.110000000000014,35.10999999999998,35.11,35.11,35.110000000000014,1.6280579355608324e-14,3.42,2.85,3.195,3.255,2.85,0.21053503271427296
1 -> 2,1.6108950000000009,1.6108949999999993,1.6108950000000002,1.6108950000000004,1.6108950000000009,6.568167990716596e-16,74.17,74.17,74.17,74.17,74.17,0.0,35.110000000000014,35.10999999999998,35.11,35.11,35.110000000000014,1.6280579355608324e-14,3.42,2.85,3.195,3.255,2.85,0.21053503271427296
1 -> 2,1.6108950000000009,1.6108949999999993,1.6108950000000002,1.6108950000000004,1.6108950000000009,6.568167990716596e-16,74.17,74.17,74.17,74.17,74.17,0.0,35.110000000000014,35.10999999999998,35.11,35.11,35.110000000000014,1.6280579355608324e-14,2.76,1.27,1.9375,1.86,1.27,0.5680834005672054
1 -> 2,1.6108950000000009,1.6108949999999993,1.6108950000000002,1.6108950000000004,1.6108950000000009,6.568167990716596e-16,74.17,74.17,74.17,74.17,74.17,0.0,35.110000000000014,35.10999999999998,35.11,35.11,35.110000000000014,1.6280579355608324e-14,2.76,1.27,1.9375,1.86,1.27,0.5680834005672054
1 -> 2,1.6108950000000009,1.6108949999999993,1.6108950000000002,1.6108950000000004,1.6108950000000009,6.568167990716596e-16,74.17,74.17,74.17,74.17,74.17,0.0,35.110000000000014,35.10999999999998,35.11,35.11,35.110000000000014,1.6280579355608324e-14,2.52,1.28,1.8449999999999998,1.79,1.28,0.4708237462150778
1 -> 2,1.6108950000000009,1.6108949999999993,1.6108950000000002,1.6108950000000004,1.6108950000000009,6.568167990716596e-16,74.17,74.17,74.17,74.17,74.17,0.0,35.110000000000014,35.10999999999998,35.11,35.11,35.110000000000014,1.6280579355608324e-14,2.52,1.28,1.8449999999999998,1.79,1.28,0.4708237462150778
1 -> 2,1.6108950000000009,1.6108949999999993,1.6108950000000002,1.6108950000000004,1.6108950000000009,6.568167990716596e-16,78.14,78.14,78.14,78.14,78.14,0.0,35.13000000000002,35.12999999999999,35.13000000000001,35.13000000000001,35.13000000000002,1.3759600911837627e-14,3.37,2.97,3.205,3.24,2.97,0.14722431864335453
1 -> 2,1.6108950000000009,1.6108949999999993,1.6108950000000002,1.6108950000000004,1.6108950000000009,6.568167990716596e-16,78.14,78.14,78.14,78.14,78.14,0.0,35.13000000000002,35.12999999999999,35.13000000000001,35.13000000000001,35.13000000000002,1.3759600911837627e-14,3.37,2.97,3.205,3.24,2.97,0.14722431864335453
1 -> 2,1.6108950000000009,1.6108949999999993,1.6108950000000002,1.6108950000000004,1.6108950000000009,6.568167990716596e-16,78.14,78.14,78.14,78.14,78.14,0.0,35.13000000000002,35.12999999999999,35.13000000000001,35.13000000000001,35.13000000000002,1.3759600911837627e-14,2.81,1.2,1.9775000000000003,1.9500000000000002,1.2,0.6056556364800051
1 -> 2,1.6108950000000009,1.6108949999999993,1.6108950000000002,1.6108950000000004,1.6108950000000009,6.568167990716596e-16,78.14,78.14,78.14,78.14,78.14,0.0,35.13000000000002,35.12999999999999,35.13000000000001,35.13000000000001,35.13000000000002,1.3759600911837627e-14,2.81,1.2,1.9775000000000003,1.9500000000000002,1.2,0.6056556364800051
1 -> 2,1.6108950000000009,1.6108949999999993,1.6108950000000002,1.6108950000000004,1.6108950000000009,6.568167990716596e-16,78.14,78.14,78.14,78.14,78.14,0.0,35.13000000000002,35.12999999999999,35.13000000000001,35.13000000000001,35.13000000000002,1.3759600911837627e-14,0.94,0.62,0.8025,0.825,0.62,0.11669940016983804
1 -> 2,1.6108950000000009,1.6108949999999993,1.6108950000000002,1.6108950000000004,1.6108950000000009,6.568167990716596e-16,78.14,78.14,78.14,78.14,78.14,0.0,35.13000000000002,35.12999999999999,35.13000000000001,35.13000000000001,35.13000000000002,1.3759600911837627e-14,0.94,0.62,0.8025,0.825,0.62,0.11669940016983804
1 -> 2,1.6108950000000009,1.6108949999999993,1.6108950000000002,1.6108950000000004,1.6108950000000009,6.568167990716596e-16,78.14,78.14,78.14,78.14,78.14,0.0,35.13000000000002,35.12999999999999,35.13000000000001,35.13000000000001,35.13000000000002,1.3759600911837627e-14,0.16,-2.75,-1.2125,-1.13,-2.75,1.0933292047686278
1 -> 2,1.6108950000000009,1.6108949999999993,1.6108950000000002,1.6108950000000004,1.6108950000000009,6.568167990716596e-16,78.14,78.14,78.14,78.14,78.14,0.0,35.13000000000002,35.12999999999999,35.13000000000001,35.13000000000001,35.13000000000002,1.3759600911837627e-14,0.16,-2.75,-1.2125,-1.13,-2.75,1.0933292047686278
1 -> 2,1.6108950000000009,1.6108949999999993,1.6108950000000002,1.6108950000000004,1.6108950000000009,6.568167990716596e-16,78.14,78.14,78.14,78.14,78.14,0.0,35.13000000000002,35.12999999999999,35.13000000000001,35.13000000000001,35.13000000000002,1.3759600911837627e-14,-3.78,-5.26,-4.685,-4.85,-5.26,0.5764329969736292
1 -> 2,1.6108950000000009,1.6108949999999993,1.6108950000000002,1.6108950000000004,1.6108950000000009,6.568167990716596e-16,78.14,78.14,78.14,78.14,78.14,0.0,35.13000000000002,35.12999999999999,35.13000000000001,35.13000000000001,35.13000000000002,1.3759600911837627e-14,-3.78,-5.26,-4.685,-4.85,-5.26,0.5764329969736292
1 -> 2,1.6108950000000009,1.6108949999999993,1.6108950000000002,1.6108950000000004,1.6108950000000009,6.568167990716596e-16,78.14,78.14,78.14,78.14,78.14,0.0,35.13000000000002,35.12999999999999,35.13000000000001,35.13000000000001,35.13000000000002,1.3759600911837627e-14,-2.5,-5.04,-3.9025,-4.035,-5.04,0.9584460078689879
1 -> 2,1.6108950000000009,1.6108949999999993,1.6108950000000002,1.6108950000000004,1.6108950000000009,6.568167990716596e-16,78.14,78.14,78.14,78.14,78.14,0.0,35.13000000000002,35.12999999999999,35.13000000000001,35.13000000000001,35.13000000000002,1.3759600911837627e-14,-2.5,-5.04,-3.9025,-4.035,-5.04,0.9584460078689879
1 -> 2,1.6108950000000009,1.6108949999999993,1.6108950000000002,1.6108950000000004,1.6108950000000009,6.568167990716596e-16,78.14,78.14,78.14,78.14,78.14,0.0,35.13000000000002,35.12999999999999,35.13000000000001,35.13000000000001,35.13000000000002,1.3759600911837627e-14,1.8,-1.29,0.33749999999999997,0.42,-1.29,1.157915692095068
1 -> 2,1.6108950000000009,1.6108949999999993,1.6108950000000002,1.6108950000000004,1.6108950000000009,6.568167990716596e-16,78.14,78.14,78.14,78.14,78.14,0.0,35.13000000000002,35.12999999999999,35.13000000000001,35.13000000000001,35.13000000000002,1.3759600911837627e-14,1.8,-1.29,0.33749999999999997,0.42,-1.29,1.157915692095068
1 -> 2,1.6108950000000009,1.6108949999999993,1.6108950000000002,1.6108950000000004,1.6108950000000009,6.568167990716596e-16,78.14,78.14,78.14,78.14,78.14,0.0,35.13000000000002,35.12999999999999,35.13000000000001,35.13000000000001,35.13000000000002,1.3759600911837627e-14,2.75,2.38,2.6025,2.64,2.38,0.14254385290148439
1 -> 2,1.6108950000000009,1.6108949999999993,1.6108950000000002,1.6108950000000004,1.6108950000000009,6.568167990716596e-16,78.14,78.14,78.14,78.14,78.14,0.0,35.13000000000002,35.12999999999999,35.13000000000001,35.13000000000001,35.13000000000002,1.3759600911837627e-14,2.75,2.38,2.6025,2.64,2.38,0.14254385290148439
1 -> 2,1.613455000000001,1.613454999999999,1.6134550000000003,1.6134550000000005,1.613455000000001,8.455206652451151e-16,78.14,78.14,78.14,78.14,78.14,0.0,35.13000000000002,35.12999999999999,35.13000000000001,35.13000000000001,35.13000000000002,1.3759600911837627e-14,2.29,1.61,1.8975,1.845,1.61,0.2614741861063918
1 -> 2,1.613455000000001,1.613454999999999,1.6134550000000003,1.6134550000000005,1.613455000000001,8.455206652451151e-16,78.14,78.14,78.14,78.14,78.14,0.0,35.13000000000002,35.12999999999999,35.13000000000001,35.13000000000001,35.13000000000002,1.3759600911837627e-14,2.29,1.61,1.8975,1.845,1.61,0.2614741861063918
1 -> 2,1.613455000000001,1.613454999999999,1.6134550000000003,1.6134550000000005,1.613455000000001,8.455206652451151e-16,78.14,78.14,78.14,78.14,78.14,0.0,35.13000000000002,35.12999999999999,35.13000000000001,35.13000000000001,35.13000000000002,1.3759600911837627e-14,1.61,1.47,1.565,1.59,1.47,0.05590169943749479
1 -> 2,1.613455000000001,1.613454999999999,1.6134550000000003,1.6134550000000005,1.613455000000001,8.455206652451151e-16,78.14,78.14,78.14,78.14,78.14,0.0,35.13000000000002,35.12999999999999,35.13000000000001,35.13000000000001,35.13000000000002,1.3759600911837627e-14,1.61,1.47,1.565,1.59,1.47,0.05590169943749479
1 -> 2,1.613455000000001,1.613454999999999,1.6134550000000003,1.6134550000000005,1.613455000000001,8.455206652451151e-16,78.14,78.14,78.14,78.14,78.14,0.0,35.13000000000002,35.12999999999999,35.13000000000001,35.13000000000001,35.13000000000002,1.3759600911837627e-14,1.68,1.32,1.45,1.4,1.32,0.13964240043768936
1 -> 2,1.613455000000001,1.613454999999999,1.6134550000000003,1.6134550000000005,1.613455000000001,8.455206652451151e-16,78.14,78.14,78.14,78.14,78.14,0.0,35.13000000000002,35.12999999999999,35.13000000000001,35.13000000000001,35.13000000000002,1.3759600911837627e-14,1.68,1.32,1.45,1.4,1.32,0.13964240043768936
1 -> 2,1.613455000000001,1.613454999999999,1.6134550000000003,1.6134550000000005,1.613455000000001,8.455206652451151e-16,78.14,78.14,78.14,78.14,78.14,0.0,35.13000000000002,35.12999999999999,35.13000000000001,35.13000000000001,35.13000000000002,1.3759600911837627e-14,2.01,1.43,1.8024999999999998,1.885,1.43,0.22241571437288327
1 -> 2,1.613455000000001,1.613454999999999,1.6134550000000003,1.6134550000000005,1.613455000000001,8.455206652451151e-16,78.14,78.14,78.14,78.14,78.14,0.0,35.13000000000002,35.12999999999999,35.13000000000001,35.13000000000001,35.13000000000002,1.3759600911837627e-14,2.01,1.43,1.8024999999999998,1.885,1.43,0.22241571437288327
1 -> 2,1.6108950000000009,1.6108949999999993,1.6108950000000002,1.6108950000000004,1.6108950000000009,6.568167990716596e-16,78.14,78.14,78.14,78.14,78.14,0.0,35.13000000000002,35.12999999999999,35.13000000000001,35.13000000000001,35.13000000000002,1.3759600911837627e-14,0.84,-0.72,0.012500000000000011,-0.03499999999999999,-0.72,0.5844388334120175
1 -> 2,1.6108950000000009,1.6108949999999993,1.6108950000000002,1.6108950000000004,1.6108950000000009,6.568167990716596e-16,78.14,78.14,78.14,78.14,78.14,0.0,35.13000000000002,35.12999999999999,35.13000000000001,35.13000000000001,35.13000000000002,1.3759600911837627e-14,0.84,-0.72,0.012500000000000011,-0.03499999999999999,-0.72,0.5844388334120175
1 -> 2,1.6108950000000009,1.6108949999999993,1.6108950000000002,1.6108950000000004,1.6108950000000009,6.568167990716596e-16,78.14,78.14,78.14,78.14,78.14,0.0,35.13000000000002,35.12999999999999,35.13000000000001,35.13000000000001,35.13000000000002,1.3759600911837627e-14,-1.08,-2.36,-1.6925,-1.665,-2.36,0.4781932140881967
1 -> 2,1.6108950000000009,1.6108949999999993,1.6108950000000002,1.6108950000000004,1.6108950000000009,6.568167990716596e-16,78.14,78.14,78.14,78.14,78.14,0.0,35.13000000000002,35.12999999999999,35.13000000000001,35.13000000000001,35.13000000000002,1.3759600911837627e-14,-1.08,-2.36,-1.6925,-1.665,-2.36,0.4781932140881967
1 -> 2,1.6108950000000009,1.6108949999999993,1.6108950000000002,1.6108950000000004,1.6108950000000009,6.568167990716596e-16,78.14,78.14,78.14,78.14,78.14,0.0,35.13000000000002,35.12999999999999,35.13000000000001,35.13000000000001,35.13000000000002,1.3759600911837627e-14,-2.82,-3.57,-3.255,-3.315,-3.57,0.28587584717845616
1 -> 2,1.6108950000000009,1.6108949999999993,1.6108950000000002,1.6108950000000004,1.6108950000000009,6.568167990716596e-16,78.14,78.14,78.14,78.14,78.14,0.0,35.13000000000002,35.12999999999999,35.13000000000001,35.13000000000001,35.13000000000002,1.3759600911837627e-14,-2.82,-3.57,-3.255,-3.315,-3.57,0.28587584717845616
1 -> 2,1.6108950000000009,1.6108949999999993,1.6108950000000002,1.6108950000000004,1.6108950000000009,6.568167990716596e-16,78.14,78.14,78.14,78.14,78.14,0.0,35.13000000000002,35.12999999999999,35.13000000000001,35.13000000000001,35.13000000000002,1.3759600911837627e-14,-2.27,-3.58,-3.065,-3.205,-3.58,0.5050990001969912
1 -> 2,1.6108950000000009,1.6108949999999993,1.6108950000000002,1.6108950000000004,1.6108950000000009,6.568167990716596e-16,78.14,78.14,78.14,78.14,78.14,0.0,35.13000000000002,35.12999999999999,35.13000000000001,35.13000000000001,35.13000000000002,1.3759600911837627e-14,-2.27,-3.58,-3.065,-3.205,-3.58,0.5050990001969912
1 -> 2,1.609614000000001,1.6096139999999994,1.6096140000000003,1.6096140000000003,1.609614000000001,7.28021923224409e-16,80.88,80.88,80.88,80.88,80.88,0.0,35.15000000000001,35.149999999999984,35.150000000000006,35.150000000000006,35.15000000000001,1.3759600911837627e-14,1.89,-1.27,0.365,0.42,-1.27,1.184261373177391
1 -> 2,1.609614000000001,1.6096139999999994,1.6096140000000003,1.6096140000000003,1.609614000000001,7.28021923224409e-16,80.88,80.88,80.88,80.88,80.88,0.0,35.15000000000001,35.149999999999984,35.150000000000006,35.150000000000006,35.15000000000001,1.3759600911837627e-14,1.89,-1.27,0.365,0.42,-1.27,1.184261373177391
1 -> 2,1.609614000000001,1.6096139999999994,1.6096140000000003,1.6096140000000003,1.609614000000001,7.28021923224409e-16,80.88,80.88,80.88,80.88,80.88,0.0,35.15000000000001,35.149999999999984,35.150000000000006,35.150000000000006,35.15000000000001,1.3759600911837627e-14,3.88,2.57,3.2625,3.3,2.57,0.4878204075271964
1 -> 2,1.609614000000001,1.6096139999999994,1.6096140000000003,1.6096140000000003,1.609614000000001,7.28021923224409e-16,80.88,80.88,80.88,80.88,80.88,0.0,35.15000000000001,35.149999999999984,35.150000000000006,35.150000000000006,35.15000000000001,1.3759600911837627e-14,3.88,2.57,3.2625,3.3,2.57,0.4878204075271964
1 -> 2,1.609614000000001,1.6096139999999994,1.6096140000000003,1.6096140000000003,1.609614000000001,7.28021923224409e-16,80.88,80.88,80.88,80.88,80.88,0.0,35.15000000000001,35.149999999999984,35.150000000000006,35.150000000000006,35.15000000000001,1.3759600911837627e-14,4.18,3.38,3.9074999999999998,4.035,3.38,0.3190121471041502
1 -> 2,1.609614000000001,1.6096139999999994,1.6096140000000003,1.6096140000000003,1.609614000000001,7.28021923224409e-16,80.88,80.88,80.88,80.88,80.88,0.0,35.15000000000001,35.149999999999984,35.150000000000006,35.150000000000006,35.15000000000001,1.3759600911837627e-14,4.18,3.38,3.9074999999999998,4.035,3.38,0.3190121471041502
1 -> 2,1.609614000000001,1.6096139999999994,1.6096140000000003,1.6096140000000003,1.609614000000001,7.28021923224409e-16,80.88,80.88,80.88,80.88,80.88,0.0,35.15000000000001,35.149999999999984,35.150000000000006,35.150000000000006,35.15000000000001,1.3759600911837627e-14,2.63,0.7,1.5825,1.5,0.7,0.7281612115459049
1 -> 2,1.609614000000001,1.6096139999999994,1.6096140000000003,1.6096140000000003,1.609614000000001,7.28021923224409e-16,80.88,80.88,80.88,80.88,80.88,0.0,35.15000000000001,35.149999999999984,35.150000000000006,35.150000000000006,35.15000000000001,1.3759600911837627e-14,2.63,0.7,1.5825,1.5,0.7,0.7281612115459049
1 -> 2,1.613455000000001,1.613454999999999,1.6134550000000003,1.6134550000000005,1.613455000000001,8.455206652451151e-16,80.88,80.88,80.88,80.88,80.88,0.0,35.15000000000001,35.149999999999984,35.150000000000006,35.150000000000006,35.15000000000001,1.3759600911837627e-14,0.99,0.5,0.685,0.625,0.5,0.19525624189766635
1 -> 2,1.613455000000001,1.613454999999999,1.6134550000000003,1.6134550000000005,1.613455000000001,8.455206652451151e-16,80.88,80.88,80.88,80.88,80.88,0.0,35.15000000000001,35.149999999999984,35.150000000000006,35.150000000000006,35.15000000000001,1.3759600911837627e-14,0.99,0.5,0.685,0.625,0.5,0.19525624189766635
1 -> 2,1.613455000000001,1.613454999999999,1.6134550000000003,1.6134550000000005,1.613455000000001,8.455206652451151e-16,80.88,80.88,80.88,80.88,80.88,0.0,35.15000000000001,35.149999999999984,35.150000000000006,35.150000000000006,35.15000000000001,1.3759600911837627e-14,1.34,1.06,1.23,1.26,1.06,0.10559356040971438
1 -> 2,1.613455000000001,1.613454999999999,1.6134550000000003,1.6134550000000005,1.613455000000001,8.455206652451151e-16,80.88,80.88,80.88,80.88,80.88,0.0,35.15000000000001,35.149999999999984,35.150000000000006,35.150000000000006,35.15000000000001,1.3759600911837627e-14,1.34,1.06,1.23,1.26,1.06,0.10559356040971438
1 -> 2,1.613455000000001,1.613454999999999,1.6134550000000003,1.6134550000000005,1.613455000000001,8.455206652451151e-16,80.88,80.88,80.88,80.88,80.88,0.0,35.15000000000001,35.149999999999984,35.150000000000006,35.150000000000006,35.15000000000001,1.3759600911837627e-14,0.69,-0.71,-0.0025000000000000022,0.0049999999999999906,-0.71,0.5221769336154173
1 -> 2,1.613455000000001,1.613454999999999,1.6134550000000003,1.6134550000000005,1.613455000000001,8.455206652451151e-16,80.88,80.88,80.88,80.88,80.88,0.0,35.15000000000001,35.149999999999984,35.150000000000006,35.150000000000006,35.15000000000001,1.3759600911837627e-14,0.69,-0.71,-0.0025000000000000022,0.0049999999999999906,-0.71,0.5221769336154173
1 -> 2,1.613455000000001,1.613454999999999,1.6134550000000003,1.6134550000000005,1.613455000000001,8.455206652451151e-16,80.88,80.88,80.88,80.88,80.88,0.0,35.15000000000001,35.149999999999984,35.150000000000006,35.150000000000006,35.15000000000001,1.3759600911837627e-14,-1.19,-2.42,-1.8475,-1.89,-2.42,0.46380895851632703
1 -> 2,1.613455000000001,1.613454999999999,1.6134550000000003,1.6134550000000005,1.613455000000001,8.455206652451151e-16,80.88,80.88,80.88,80.88,80.88,0.0,35.15000000000001,35.149999999999984,35.150000000000006,35.150000000000006,35.15000000000001,1.3759600911837627e-14,-1.19,-2.42,-1.8475,-1.89,-2.42,0.46380895851632703
1 -> 2,1.6083340000000008,1.6083339999999995,1.6083340000000002,1.6083340000000002,1.6083339999999995,6.661338147750939e-16,80.88,80.88,80.88,80.88,80.88,0.0,35.15000000000001,35.149999999999984,35.150000000000006,35.150000000000006,35.15000000000001,1.3759600911837627e-14,-1.07,-2.5,-1.92,-2.0549999999999997,-2.5,0.5512259065029509
1 -> 2,1.6083340000000008,1.6083339999999995,1.6083340000000002,1.6083340000000002,1.6083339999999995,6.661338147750939e-16,80.88,80.88,80.88,80.88,80.88,0.0,35.15000000000001,35.149999999999984,35.150000000000006,35.150000000000006,35.15000000000001,1.3759600911837627e-14,-1.07,-2.5,-1.92,-2.0549999999999997,-2.5,0.5512259065029509
1 -> 2,1.6083340000000008,1.6083339999999995,1.6083340000000002,1.6083340000000002,1.6083339999999995,6.661338147750939e-16,80.88,80.88,80.88,80.88,80.88,0.0,35.15000000000001,35.149999999999984,35.150000000000006,35.150000000000006,35.15000000000001,1.3759600911837627e-14,2.47,-0.17,1.195,1.24,-0.17,0.9894569217505126
1 -> 2,1.6083340000000008,1.6083339999999995,1.6083340000000002,1.6083340000000002,1.6083339999999995,6.661338147750939e-16,80.88,80.88,80.88,80.88,80.88,0.0,35.15000000000001,35.149999999999984,35.150000000000006,35.150000000000006,35.15000000000001,1.3759600911837627e-14,2.47,-0.17,1.195,1.24,-0.17,0.9894569217505126
1 -> 2,1.6083340000000008,1.6083339999999995,1.6083340000000002,1.6083340000000002,1.6083339999999995,6.661338147750939e-16,80.88,80.88,80.88,80.88,80.88,0.0,35.15000000000001,35.149999999999984,35.150000000000006,35.150000000000006,35.15000000000001,1.3759600911837627e-14,3.35,3.02,3.2275,3.27,3.02,0.1273528562695003
1 -> 2,1.6083340000000008,1.6083339999999995,1.6083340000000002,1.6083340000000002,1.6083339999999995,6.661338147750939e-16,80.88,80.88,80.88,80.88,80.88,0.0,35.15000000000001,35.149999999999984,35.150000000000006,35.150000000000006,35.15000000000001,1.3759600911837627e-14,3.35,3.02,3.2275,3.27,3.02,0.1273528562695003
1 -> 2,1.6083340000000008,1.6083339999999995,1.6083340000000002,1.6083340000000002,1.6083339999999995,6.661338147750939e-16,80.88,80.88,80.88,80.88,80.88,0.0,35.15000000000001,35.149999999999984,35.150000000000006,35.150000000000006,35.15000000000001,1.3759600911837627e-14,3.77,3.1,3.3225,3.21,3.1,0.27353016287056897
1 -> 2,1.6083340000000008,1.6083339999999995,1.6083340000000002,1.6083340000000002,1.6083339999999995,6.661338147750939e-16,80.88,80.88,80.88,80.88,80.88,0.0,35.15000000000001,35.149999999999984,35.150000000000006,35.150000000000006,35.15000000000001,1.3759600911837627e-14,3.77,3.1,3.3225,3.21,3.1,0.27353016287056897
1 -> 2,1.609614000000001,1.6096139999999994,1.6096140000000003,1.6096140000000003,1.609614000000001,7.28021923224409e-16,80.88,80.88,80.88,80.88,80.88,0.0,35.15000000000001,35.149999999999984,35.150000000000006,35.150000000000006,35.15000000000001,1.3759600911837627e-14,5.73,4.37,5.1425,5.235,4.37,0.5193926741878443
1 -> 2,1.609614000000001,1.6096139999999994,1.6096140000000003,1.6096140000000003,1.609614000000001,7.28021923224409e-16,80.88,80.88,80.88,80.88,80.88,0.0,35.15000000000001,35.149999999999984,35.150000000000006,35.150000000000006,35.15000000000001,1.3759600911837627e-14,5.73,4.37,5.1425,5.235,4.37,0.5193926741878443
1 -> 2,1.609614000000001,1.6096139999999994,1.6096140000000003,1.6096140000000003,1.609614000000001,7.28021923224409e-16,80.88,80.88,80.88,80.88,80.88,0.0,35.15000000000001,35.149999999999984,35.150000000000006,35.150000000000006,35.15000000000001,1.3759600911837627e-14,5.69,4.15,4.9975000000000005,5.074999999999999,4.15,0.5833255951867704
1 -> 2,1.609614000000001,1.6096139999999994,1.6096140000000003,1.6096140000000003,1.609614000000001,7.28021923224409e-16,80.88,80.88,80.88,80.88,80.88,0.0,35.15000000000001,35.149999999999984,35.150000000000006,35.150000000000006,35.15000000000001,1.3759600911837627e-14,5.69,4.15,4.9975000000000005,5.074999999999999,4.15,0.5833255951867704
1 -> 2,1.609614000000001,1.6096139999999994,1.6096140000000003,1.6096140000000003,1.609614000000001,7.28021923224409e-16,80.88,80.88,80.88,80.88,80.88,0.0,35.15000000000001,35.149999999999984,35.150000000000006,35.150000000000006,35.15000000000001,1.3759600911837627e-14,3.53,2.72,3.0275000000000003,2.9299999999999997,2.72,0.3161783515675922
1 -> 2,1.609614000000001,1.6096139999999994,1.6096140000000003,1.6096140000000003,1.609614000000001,7.28021923224409e-16,80.88,80.88,80.88,80.88,80.88,0.0,35.15000000000001,35.149999999999984,35.150000000000006,35.150000000000006,35.15000000000001,1.3759600911837627e-14,3.53,2.72,3.0275000000000003,2.9299999999999997,2.72,0.3161783515675922
1 -> 2,1.609614000000001,1.6096139999999994,1.6096140000000003,1.6096140000000003,1.609614000000001,7.28021923224409e-16,80.88,80.88,80.88,80.88,80.88,0.0,35.15000000000001,35.149999999999984,35.150000000000006,35.150000000000006,35.15000000000001,1.3759600911837627e-14,2.78,2.49,2.685,2.7350000000000003,2.49,0.11456439237389589
1 -> 2,1.609614000000001,1.6096139999999994,1.6096140000000003,1.6096140000000003,1.609614000000001,7.28021923224409e-16,80.88,80.88,80.88,80.88,80.88,0.0,35.15000000000001,35.149999999999984,35.150000000000006,35.150000000000006,35.15000000000001,1.3759600911837627e-14,2.78,2.49,2.685,2.7350000000000003,2.49,0.11456439237389589
1 -> 2,1.609614000000001,1.6096139999999994,1.6096140000000003,1.6096140000000003,1.609614000000001,7.28021923224409e-16,82.89,82.89,82.89,82.89,82.89,0.0,35.15000000000001,35.149999999999984,35.150000000000006,35.150000000000006,35.15000000000001,1.3759600911837627e-14,2.06,0.06,1.0875,1.115,0.06,0.7485110219629368
1 -> 2,1.609614000000001,1.6096139999999994,1.6096140000000003,1.6096140000000003,1.609614000000001,7.28021923224409e-16,82.89,82.89,82.89,82.89,82.89,0.0,35.15000000000001,35.149999999999984,35.150000000000006,35.150000000000006,35.15000000000001,1.3759600911837627e-14,2.06,0.06,1.0875,1.115,0.06,0.7485110219629368
1 -> 2,1.609614000000001,1.6096139999999994,1.6096140000000003,1.6096140000000003,1.609614000000001,7.28021923224409e-16,82.89,82.89,82.89,82.89,82.89,0.0,35.15000000000001,35.149999999999984,35.150000000000006,35.150000000000006,35.15000000000001,1.3759600911837627e-14,-0.58,-1.88,-1.2825,-1.335,-1.88,0.4869484058912196
1 -> 2,1.609614000000001,1.6096139999999994,1.6096140000000003,1.6096140000000003,1.609614000000001,7.28021923224409e-16,82.89,82.89,82.89,82.89,82.89,0.0,35.15000000000001,35.149999999999984,35.150000000000006,35.150000000000006,35.15000000000001,1.3759600911837627e-14,-0.58,-1.88,-1.2825,-1.335,-1.88,0.4869484058912196
1 -> 2,1.609614000000001,1.6096139999999994,1.6096140000000003,1.6096140000000003,1.609614000000001,7.28021923224409e-16,82.89,82.89,82.89,82.89,82.89,0.0,35.15000000000001,35.149999999999984,35.150000000000006,35.150000000000006,35.15000000000001,1.3759600911837627e-14,-2.14,-2.4,-2.2925000000000004,-2.315,-2.4,0.09522998477370448
1 -> 2,1.609614000000001,1.6096139999999994,1.6096140000000003,1.6096140000000003,1.609614000000001,7.28021923224409e-16,82.89,82.89,82.89,82.89,82.89,0.0,35.15000000000001,35.149999999999984,35.150000000000006,35.150000000000006,35.15000000000001,1.3759600911837627e-14,-2.14,-2.4,-2.2925000000000004,-2.315,-2.4,0.09522998477370448
1 -> 2,1.609614000000001,1.6096139999999994,1.6096140000000003,1.6096140000000003,1.609614000000001,7.28021923224409e-16,82.89,82.89,82.89,82.89,82.89,0.0,35.15000000000001,35.149999999999984,35.150000000000006,35.150000000000006,35.15000000000001,1.3759600911837627e-14,0.79,-1.95,-0.6975,-0.8150000000000001,-1.95,1.0320216809738059
1 -> 2,1.609614000000001,1.6096139999999994,1.6096140000000003,1.6096140000000003,1.609614000000001,7.28021923224409e-16,82.89,82.89,82.89,82.89,82.89,0.0,35.15000000000001,35.149999999999984,35.150000000000006,35.150000000000006,35.15000000000001,1.3759600911837627e-14,0.79,-1.95,-0.6975,-0.8150000000000001,-1.95,1.0320216809738059
1 -> 2,1.609614000000001,1.6096139999999994,1.6096140000000003,1.6096140000000003,1.609614000000001,7.28021923224409e-16,82.89,82.89,82.89,82.89,82.89,0.0,35.15000000000001,35.149999999999984,35.150000000000006,35.150000000000006,35.15000000000001,1.3759600911837627e-14,3.11,1.88,2.6999999999999997,2.9050000000000002,3.11,0.5021453972705515
1 -> 2,1.609614000000001,1.6096139999999994,1.6096140000000003,1.6096140000000003,1.609614000000001,7.28021923224409e-16,82.89,82.89,82.89,82.89,82.89,0.0,35.15000000000001,35.149999999999984,35.150000000000006,35.150000000000006,35.15000000000001,1.3759600911837627e-14,3.11,1.88,2.6999999999999997,2.9050000000000002,3.11,0.5021453972705515
1 -> 2,1.609614000000001,1.6096139999999994,1.6096140000000003,1.6096140000000003,1.609614000000001,7.28021923224409e-16,82.89,82.89,82.89,82.89,82.89,0.0,35.15000000000001,35.149999999999984,35.150000000000006,35.150000000000006,35.15000000000001,1.3759600911837627e-14,2.79,1.53,2.1374999999999997,2.1149999999999998,1.53,0.47357021654660675
1 -> 2,1.609614000000001,1.6096139999999994,1.6096140000000003,1.6096140000000003,1.609614000000001,7.28021923224409e-16,82.89,82.89,82.89,82.89,82.89,0.0,35.15000000000001,35.149999999999984,35.150000000000006,35.150000000000006,35.15000000000001,1.3759600911837627e-14,2.79,1.53,2.1374999999999997,2.1149999999999998,1.53,0.47357021654660675
1 -> 2,1.609614000000001,1.6096139999999994,1.6096140000000003,1.6096140000000003,1.609614000000001,7.28021923224409e-16,82.89,82.89,82.89,82.89,82.89,0.0,35.15000000000001,35.149999999999984,35.150000000000006,35.150000000000006,35.15000000000001,1.3759600911837627e-14,1.26,0.93,1.055,1.0150000000000001,0.93,0.12932517156377563
1 -> 2,1.609614000000001,1.6096139999999994,1.6096140000000003,1.6096140000000003,1.609614000000001,7.28021923224409e-16,82.89,82.89,82.89,82.89,82.89,0.0,35.15000000000001,35.149999999999984,35.150000000000006,35.150000000000006,35.15000000000001,1.3759600911837627e-14,1.26,0.93,1.055,1.0150000000000001,0.93,0.12932517156377563
1 -> 2,1.609614000000001,1.6096139999999994,1.6096140000000003,1.6096140000000003,1.609614000000001,7.28021923224409e-16,82.89,82.89,82.89,82.89,82.89,0.0,35.15000000000001,35.149999999999984,35.150000000000006,35.150000000000006,35.15000000000001,1.3759600911837627e-14,0.96,0.77,0.9,0.935,0.77,0.07648529270389176
1 -> 2,1.609614000000001,1.6096139999999994,1.6096140000000003,1.6096140000000003,1.609614000000001,7.28021923224409e-16,82.89,82.89,82.89,82.89,82.89,0.0,35.15000000000001,35.149999999999984,35.150000000000006,35.150000000000006,35.15000000000001,1.3759600911837627e-14,0.96,0.77,0.9,0.935,0.77,0.07648529270389176
1 -> 2,1.6083340000000008,1.6083339999999995,1.6083340000000002,1.6083340000000002,1.6083339999999995,6.661338147750939e-16,82.89,82.89,82.89,82.89,82.89,0.0,35.15000000000001,35.149999999999984,35.150000000000006,35.150000000000006,35.15000000000001,1.3759600911837627e-14,0.55,0.15,0.31,0.27,0.15,0.15508062419270824
1 -> 2,1.6083340000000008,1.6083339999999995,1.6083340000000002,1.6083340000000002,1.6083339999999995,6.661338147750939e-16,82.89,82.89,82.89,82.89,82.89,0.0,35.15000000000001,35.149999999999984,35.150000000000006,35.150000000000006,35.15000000000001,1.3759600911837627e-14,0.55,0.15,0.31,0.27,0.15,0.15508062419270824
1 -> 2,1.6083340000000008,1.6083339999999995,1.6083340000000002,1.6083340000000002,1.6083339999999995,6.661338147750939e-16,82.89,82.89,82.89,82.89,82.89,0.0,35.15000000000001,35.149999999999984,35.150000000000006,35.150000000000006,35.15000000000001,1.3759600911837627e-14,0.17,-0.03,0.10500000000000001,0.14,-0.03,0.08015609770940699
1 -> 2,1.6083340000000008,1.6083339999999995,1.6083340000000002,1.6083340000000002,1.6083339999999995,6.661338147750939e-16,82.89,82.89,82.89,82.89,82.89,0.0,35.15000000000001,35.149999999999984,35.150000000000006,35.150000000000006,35.15000000000001,1.3759600911837627e-14,0.17,-0.03,0.10500000000000001,0.14,-0.03,0.08015609770940699
1 -> 2,1.6083340000000008,1.6083339999999995,1.6083340000000002,1.6083340000000002,1.6083339999999995,6.661338147750939e-16,82.89,82.89,82.89,82.89,82.89,0.0,35.15000000000001,35.149999999999984,35.150000000000006,35.150000000000006,35.15000000000001,1.3759600911837627e-14,-0.24,-1.27,-0.7275,-0.7,-1.27,0.38447204059593204
1 -> 2,1.6083340000000008,1.6083339999999995,1.6083340000000002,1.6083340000000002,1.6083339999999995,6.661338147750939e-16,82.89,82.89,82.89,82.89,82.89,0.0,35.15000000000001,35.149999999999984,35.150000000000006,35.150000000000006,35.15000000000001,1.3759600911837627e-14,-0.24,-1.27,-0.7275,-0.7,-1.27,0.38447204059593204
1 -> 2,1.6083340000000008,1.6083339999999995,1.6083340000000002,1.6083340000000002,1.6083339999999995,6.661338147750939e-16,82.89,82.89,82.89,82.89,82.89,0.0,35.15000000000001,35.149999999999984,35.150000000000006,35.150000000000006,35.15000000000001,1.3759600911837627e-14,-1.72,-3.08,-2.4125,-2.425,-3.08,0.5088897228280407
1 -> 2,1.6083340000000008,1.6083339999999995,1.6083340000000002,1.6083340000000002,1.6083339999999995,6.661338147750939e-16,82.89,82.89,82.89,82.89,82.89,0.0,35.15000000000001,35.149999999999984,35.150000000000006,35.150000000000006,35.15000000000001,1.3759600911837627e-14,-1.72,-3.08,-2.4125,-2.425,-3.08,0.5088897228280407
1 -> 2,1.609614000000001,1.6096139999999994,1.6096140000000003,1.6096140000000003,1.609614000000001,7.28021923224409e-16,82.89,82.89,82.89,82.89,82.89,0.0,35.15000000000001,35.149999999999984,35.150000000000006,35.150000000000006,35.15000000000001,1.3759600911837627e-14,-3.45,-3.89,-3.73,-3.79,-3.89,0.1720465053408525
1 -> 2,1.609614000000001,1.6096139999999994,1.6096140000000003,1.6096140000000003,1.609614000000001,7.28021923224409e-16,82.89,82.89,82.89,82.89,82.89,0.0,35.15000000000001,35.149999999999984,35.150000000000006,35.150000000000006,35.15000000000001,1.3759600911837627e-14,-3.45,-3.89,-3.73,-3.79,-3.89,0.1720465053408525
1 -> 2,1.609614000000001,1.6096139999999994,1.6096140000000003,1.6096140000000003,1.609614000000001,7.28021923224409e-16,82.89,82.89,82.89,82.89,82.89,0.0,35.15000000000001,35.149999999999984,35.150000000000006,35.150000000000006,35.15000000000001,1.3759600911837627e-14,-1.23,-3.55,-2.4825,-2.575,-3.55,0.8737097630220232
1 -> 2,1.609614000000001,1.6096139999999994,1.6096140000000003,1.6096140000000003,1.609614000000001,7.28021923224409e-16,82.89,82.89,82.89,82.89,82.89,0.0,35.15000000000001,35.149999999999984,35.150000000000006,35.150000000000006,35.15000000000001,1.3759600911837627e-14,-1.23,-3.55,-2.4825,-2.575,-3.55,0.8737097630220232
1 -> 2,1.609614000000001,1.6096139999999994,1.6096140000000003,1.6096140000000003,1.609614000000001,7.28021923224409e-16,82.89,82.89,82.89,82.89,82.89,0.0,35.15000000000001,35.149999999999984,35.150000000000006,35.150000000000006,35.15000000000001,1.3759600911837627e-14,1.66,-0.27,0.7974999999999999,0.8999999999999999,-0.27,0.7284015032933416
1 -> 2,1.609614000000001,1.6096139999999994,1.6096140000000003,1.6096140000000003,1.609614000000001,7.28021923224409e-16,82.89,82.89,82.89,82.89,82.89,0.0,35.15000000000001,35.149999999999984,35.150000000000006,35.150000000000006,35.15000000000001,1.3759600911837627e-14,1.66,-0.27,0.7974999999999999,0.8999999999999999,-0.27,0.7284015032933416
1 -> 2,1.609614000000001,1.6096139999999994,1.6096140000000003,1.6096140000000003,1.609614000000001,7.28021923224409e-16,82.89,82.89,82.89,82.89,82.89,0.0,35.15000000000001,35.149999999999984,35.150000000000006,35.150000000000006,35.15000000000001,1.3759600911837627e-14,1.85,1.13,1.5875000000000001,1.685,1.13,0.28656369274560944
1 -> 2,1.609614000000001,1.6096139999999994,1.6096140000000003,1.6096140000000003,1.609614000000001,7.28021923224409e-16,82.89,82.89,82.89,82.89,82.89,0.0,35.15000000000001,35.149999999999984,35.150000000000006,35.150000000000006,35.15000000000001,1.3759600911837627e-14,1.85,1.13,1.5875000000000001,1.685,1.13,0.28656369274560944
1 -> 2,1.6083340000000008,1.6083339999999995,1.6083340000000002,1.6083340000000002,1.6083339999999995,6.661338147750939e-16,84.4,84.4,84.4,84.4,84.4,0.0,35.15000000000001,35.149999999999984,35.150000000000006,35.150000000000006,35.15000000000001,1.3759600911837627e-14,0.63,0.03,0.2525,0.175,0.03,0.22807619340913246
1 -> 2,1.6083340000000008,1.6083339999999995,1.6083340000000002,1.6083340000000002,1.6083339999999995,6.661338147750939e-16,84.4,84.4,84.4,84.4,84.4,0.0,35.15000000000001,35.149999999999984,35.150000000000006,35.150000000000006,35.15000000000001,1.3759600911837627e-14,0.63,0.03,0.2525,0.175,0.03,0.22807619340913246
1 -> 2,1.6083340000000008,1.6083339999999995,1.6083340000000002,1.6083340000000002,1.6083339999999995,6.661338147750939e-16,84.4,84.4,84.4,84.4,84.4,0.0,35.15000000000001,35.149999999999984,35.150000000000006,35.150000000000006,35.15000000000001,1.3759600911837627e-14,0.97,0.43,0.7649999999999999,0.8300000000000001,0.43,0.2047559522944327
1 -> 2,1.6083340000000008,1.6083339999999995,1.6083340000000002,1.6083340000000002,1.6083339999999995,6.661338147750939e-16,84.4,84.4,84.4,84.4,84.4,0.0,35.15000000000001,35.149999999999984,35.150000000000006,35.150000000000006,35.15000000000001,1.3759600911837627e-14,0.97,0.43,0.7649999999999999,0.8300000000000001,0.43,0.2047559522944327
1 -> 2,1.6083340000000008,1.6083339999999995,1.6083340000000002,1.6083340000000002,1.6083339999999995,6.661338147750939e-16,84.4,84.4,84.4,84.4,84.4,0.0,35.15000000000001,35.149999999999984,35.150000000000006,35.150000000000006,35.15000000000001,1.3759600911837627e-14,0.57,-0.27,0.0875,0.024999999999999994,-0.27,0.3226743714644843
1 -> 2,1.6083340000000008,1.6083339999999995,1.6083340000000002,1.6083340000000002,1.6083339999999995,6.661338147750939e-16,84.4,84.4,84.4,84.4,84.4,0.0,35.15000000000001,35.149999999999984,35.150000000000006,35.150000000000006,35.15000000000001,1.3759600911837627e-14,0.57,-0.27,0.0875,0.024999999999999994,-0.27,0.3226743714644843
1 -> 2,1.6083340000000008,1.6083339999999995,1.6083340000000002,1.6083340000000002,1.6083339999999995,6.661338147750939e-16,84.4,84.4,84.4,84.4,84.4,0.0,35.15000000000001,35.149999999999984,35.150000000000006,35.150000000000006,35.15000000000001,1.3759600911837627e-14,-0.22,-0.33,-0.26,-0.245,-0.33,0.04301162633521314
1 -> 2,1.6083340000000008,1.6083339999999995,1.6083340000000002,1.6083340000000002,1.6083339999999995,6.661338147750939e-16,84.4,84.4,84.4,84.4,84.4,0.0,35.15000000000001,35.149999999999984,35.150000000000006,35.150000000000006,35.15000000000001,1.3759600911837627e-14,-0.22,-0.33,-0.26,-0.245,-0.33,0.04301162633521314
1 -> 2,1.6083340000000008,1.6083339999999995,1.6083340000000002,1.6083340000000002,1.6083339999999995,6.661338147750939e-16,84.4,84.4,84.4,84.4,84.4,0.0,35.15000000000001,35.149999999999984,35.150000000000006,35.150000000000006,35.15000000000001,1.3759600911837627e-14,-0.53,-1.89,-1.125,-1.04,-1.89,0.5103675146401855
1 -> 2,1.6083340000000008,1.6083339999999995,1.6083340000000002,1.6083340000000002,1.6083339999999995,6.661338147750939e-16,84.4,84.4,84.4,84.4,84.4,0.0,35.15000000000001,35.149999999999984,35.150000000000006,35.150000000000006,35.15000000000001,1.3759600911837627e-14,-0.53,-1.89,-1.125,-1.04,-1.89,0.5103675146401855
1 -> 2,1.6083340000000008,1.6083339999999995,1.6083340000000002,1.6083340000000002,1.6083339999999995,6.661338147750939e-16,84.4,84.4,84.4,84.4,84.4,0.0,35.15000000000001,35.149999999999984,35.150000000000006,35.150000000000006,35.15000000000001,1.3759600911837627e-14,-2.75,-5.07,-4.03,-4.15,-5.07,0.882977915918626
1 -> 2,1.6083340000000008,1.6083339999999995,1.6083340000000002,1.6083340000000002,1.6083339999999995,6.661338147750939e-16,84.4,84.4,84.4,84.4,84.4,0.0,35.15000000000001,35.149999999999984,35.150000000000006,35.150000000000006,35.15000000000001,1.3759600911837627e-14,-2.75,-5.07,-4.03,-4.15,-5.07,0.882977915918626
1 -> 2,1.6083340000000008,1.6083339999999995,1.6083340000000002,1.6083340000000002,1.6083339999999995,6.661338147750939e-16,84.4,84.4,84.4,84.4,84.4,0.0,35.15000000000001,35.149999999999984,35.150000000000006,35.150000000000006,35.15000000000001,1.3759600911837627e-14,-3.1,-5.05,-4.1425,-4.21,-5.05,0.740485482639599
1 -> 2,1.6083340000000008,1.6083339999999995,1.6083340000000002,1.6083340000000002,1.6083339999999995,6.661338147750939e-16,84.4,84.4,84.4,84.4,84.4,0.0,35.15000000000001,35.149999999999984,35.150000000000006,35.150000000000006,35.15000000000001,1.3759600911837627e-14,-3.1,-5.05,-4.1425,-4.21,-5.05,0.740485482639599
1 -> 2,1.6083340000000008,1.6083339999999995,1.6083340000000002,1.6083340000000002,1.6083339999999995,6.661338147750939e-16,84.4,84.4,84.4,84.4,84.4,0.0,35.15000000000001,35.149999999999984,35.150000000000006,35.150000000000006,35.15000000000001,1.3759600911837627e-14,-1.27,-2.51,-1.8875000000000002,-1.8849999999999998,-2.51,0.45751366099822627
1 -> 2,1.6083340000000008,1.6083339999999995,1.6083340000000002,1.6083340000000002,1.6083339999999995,6.661338147750939e-16,84.4,84.4,84.4,84.4,84.4,0.0,35.15000000000001,35.149999999999984,35.150000000000006,35.150000000000006,35.15000000000001,1.3759600911837627e-14,-1.27,-2.51,-1.8875000000000002,-1.8849999999999998,-2.51,0.45751366099822627
1 -> 2,1.613455000000001,1.613454999999999,1.6134550000000003,1.6134550000000005,1.613455000000001,8.455206652451151e-16,84.4,84.4,84.4,84.4,84.4,0.0,35.15000000000001,35.149999999999984,35.150000000000006,35.150000000000006,35.15000000000001,1.3759600911837627e-14,-0.07,-0.78,-0.3325,-0.24,-0.78,0.27343874999714285
1 -> 2,1.613455000000001,1.613454999999999,1.6134550000000003,1.6134550000000005,1.613455000000001,8.455206652451151e-16,84.4,84.4,84.4,84.4,84.4,0.0,35.15000000000001,35.149999999999984,35.150000000000006,35.150000000000006,35.15000000000001,1.3759600911837627e-14,-0.07,-0.78,-0.3325,-0.24,-0.78,0.27343874999714285
1 -> 2,1.613455000000001,1.613454999999999,1.6134550000000003,1.6134550000000005,1.613455000000001,8.455206652451151e-16,84.4,84.4,84.4,84.4,84.4,0.0,35.15000000000001,35.149999999999984,35.150000000000006,35.150000000000006,35.15000000000001,1.3759600911837627e-14,-0.66,-3.66,-2.09,-2.02,-3.66,1.127098043650152
1 -> 2,1.613455000000001,1.613454999999999,1.6134550000000003,1.6134550000000005,1.613455000000001,8.455206652451151e-16,84.4,84.4,84.4,84.4,84.4,0.0,35.15000000000001,35.149999999999984,35.150000000000006,35.150000000000006,35.15000000000001,1.3759600911837627e-14,-0.66,-3.66,-2.09,-2.02,-3.66,1.127098043650152
1 -> 2,1.613455000000001,1.613454999999999,1.6134550000000003,1.6134550000000005,1.613455000000001,8.455206652451151e-16,84.4,84.4,84.4,84.4,84.4,0.0,35.15000000000001,35.149999999999984,35.150000000000006,35.150000000000006,35.15000000000001,1.3759600911837627e-14,-4.65,-5.69,-5.322500000000001,-5.475,-5.69,0.4062865368185364
1 -> 2,1.613455000000001,1.613454999999999,1.6134550000000003,1.6134550000000005,1.613455000000001,8.455206652451151e-16,84.4,84.4,84.4,84.4,84.4,0.0,35.15000000000001,35.149999999999984,35.150000000000006,35.150000000000006,35.15000000000001,1.3759600911837627e-14,-4.65,-5.69,-5.322500000000001,-5.475,-5.69,0.4062865368185364
1 -> 2,1.613455000000001,1.613454999999999,1.6134550000000003,1.6134550000000005,1.613455000000001,8.455206652451151e-16,84.4,84.4,84.4,84.4,84.4,0.0,35.15000000000001,35.149999999999984,35.150000000000006,35.150000000000006,35.15000000000001,1.3759600911837627e-14,-3.4,-5.11,-4.18,-4.1049999999999995,-5.11,0.6511144292672373
1 -> 2,1.613455000000001,1.613454999999999,1.6134550000000003,1.6134550000000005,1.613455000000001,8.455206652451151e-16,84.4,84.4,84.4,84.4,84.4,0.0,35.15000000000001,35.149999999999984,35.150000000000006,35.150000000000006,35.15000000000001,1.3759600911837627e-14,-3.4,-5.11,-4.18,-4.1049999999999995,-5.11,0.6511144292672373
1 -> 2,1.613455000000001,1.613454999999999,1.6134550000000003,1.6134550000000005,1.613455000000001,8.455206652451151e-16,84.4,84.4,84.4,84.4,84.4,0.0,35.15000000000001,35.149999999999984,35.150000000000006,35.150000000000006,35.15000000000001,1.3759600911837627e-14,-3.42,-5.38,-4.3149999999999995,-4.23,-5.38,0.7431184293233482
1 -> 2,1.613455000000001,1.613454999999999,1.6134550000000003,1.6134550000000005,1.613455000000001,8.455206652451151e-16,84.4,84.4,84.4,84.4,84.4,0.0,35.15000000000001,35.149999999999984,35.150000000000006,35.150000000000006,35.15000000000001,1.3759600911837627e-14,-3.42,-5.38,-4.3149999999999995,-4.23,-5.38,0.7431184293233482
1 -> 2,1.613455000000001,1.613454999999999,1.6134550000000003,1.6134550000000005,1.613455000000001,8.455206652451151e-16,84.4,84.4,84.4,84.4,84.4,0.0,35.15000000000001,35.149999999999984,35.150000000000006,35.150000000000006,35.15000000000001,1.3759600911837627e-14,-5.82,-6.3,-6.09,-6.12,-6.3,0.18907670401189033
1 -> 2,1.613455000000001,1.613454999999999,1.6134550000000003,1.6134550000000005,1.613455000000001,8.455206652451151e-16,84.4,84.4,84.4,84.4,84.4,0.0,35.15000000000001,35.149999999999984,35.150000000000006,35.150000000000006,35.15000000000001,1.3759600911837627e-14,-5.82,-6.3,-6.09,-6.12,-6.3,0.18907670401189033
1 -> 2,1.613455000000001,1.613454999999999,1.6134550000000003,1.6134550000000005,1.613455000000001,8.455206652451151e-16,84.4,84.4,84.4,84.4,84.4,0.0,35.15000000000001,35.149999999999984,35.150000000000006,35.150000000000006,35.15000000000001,1.3759600911837627e-14,-2.77,-5.18,-3.9875,-4.0,-5.18,0.900121519573885
1 -> 2,1.613455000000001,1.613454999999999,1.6134550000000003,1.6134550000000005,1.613455000000001,8.455206652451151e-16,84.4,84.4,84.4,84.4,84.4,0.0,35.15000000000001,35.149999999999984,35.150000000000006,35.150000000000006,35.15000000000001,1.3759600911837627e-14,-2.77,-5.18,-3.9875,-4.0,-5.18,0.900121519573885
1 -> 2,1.613455000000001,1.613454999999999,1.6134550000000003,1.6134550000000005,1.613455000000001,8.455206652451151e-16,84.4,84.4,84.4,84.4,84.4,0.0,35.15000000000001,35.149999999999984,35.150000000000006,35.150000000000006,35.15000000000001,1.3759600911837627e-14,-0.3,-2.0,-1.09,-1.03,-2.0,0.6356492743644092
1 -> 2,1.613455000000001,1.613454999999999,1.6134550000000003,1.6134550000000005,1.613455000000001,8.455206652451151e-16,84.4,84.4,84.4,84.4,84.4,0.0,35.15000000000001,35.149999999999984,35.150000000000006,35.150000000000006,35.15000000000001,1.3759600911837627e-14,-0.3,-2.0,-1.09,-1.03,-2.0,0.6356492743644092
1 -> 2,1.613455000000001,1.613454999999999,1.6134550000000003,1.6134550000000005,1.613455000000001,8.455206652451151e-16,85.73,85.73,85.73,85.73,85.73,0.0,35.13000000000002,35.12999999999999,35.13000000000001,35.13000000000001,35.13000000000002,1.3759600911837627e-14,1.9,0.11,0.9225,0.84,0.11,0.6703497221600081
1 -> 2,1.613455000000001,1.613454999999999,1.6134550000000003,1.6134550000000005,1.613455000000001,8.455206652451151e-16,85.73,85.73,85.73,85.73,85.73,0.0,35.13000000000002,35.12999999999999,35.13000000000001,35.13000000000001,35.13000000000002,1.3759600911837627e-14,1.9,0.11,0.9225,0.84,0.11,0.6703497221600081
1 -> 2,1.613455000000001,1.613454999999999,1.6134550000000003,1.6134550000000005,1.613455000000001,8.455206652451151e-16,85.73,85.73,85.73,85.73,85.73,0.0,35.13000000000002,35.12999999999999,35.13000000000001,35.13000000000001,35.13000000000002,1.3759600911837627e-14,5.27,2.83,4.1475,4.245,2.83,0.921042208587641
1 -> 2,1.613455000000001,1.613454999999999,1.6134550000000003,1.6134550000000005,1.613455000000001,8.455206652451151e-16,85.73,85.73,85.73,85.73,85.73,0.0,35.13000000000002,35.12999999999999,35.13000000000001,35.13000000000001,35.13000000000002,1.3759600911837627e-14,5.27,2.83,4.1475,4.245,2.83,0.921042208587641
1 -> 2,1.613455000000001,1.613454999999999,1.6134550000000003,1.6134550000000005,1.613455000000001,8.455206652451151e-16,85.73,85.73,85.73,85.73,85.73,0.0,35.13000000000002,35.12999999999999,35.13000000000001,35.13000000000001,35.13000000000002,1.3759600911837627e-14,5.52,5.28,5.41,5.42,5.28,0.09874208829065739
1 -> 2,1.613455000000001,1.613454999999999,1.6134550000000003,1.6134550000000005,1.613455000000001,8.455206652451151e-16,85.73,85.73,85.73,85.73,85.73,0.0,35.13000000000002,35.12999999999999,35.13000000000001,35.13000000000001,35.13000000000002,1.3759600911837627e-14,5.52,5.28,5.41,5.42,5.28,0.09874208829065739
1 -> 2,1.613455000000001,1.613454999999999,1.6134550000000003,1.6134550000000005,1.613455000000001,8.455206652451151e-16,85.73,85.73,85.73,85.73,85.73,0.0,35.13000000000002,35.12999999999999,35.13000000000001,35.13000000000001,35.13000000000002,1.3759600911837627e-14,7.3,5.43,6.2749999999999995,6.1850000000000005,5.43,0.7057088634840857
1 -> 2,1.613455000000001,1.613454999999999,1.6134550000000003,1.6134550000000005,1.613455000000001,8.455206652451151e-16,85.73,85.73,85.73,85.73,85.73,0.0,35.13000000000002,35.12999999999999,35.13000000000001,35.13000000000001,35.13000000000002,1.3759600911837627e-14,7.3,5.43,6.2749999999999995,6.1850000000000005,5.43,0.7057088634840857
1 -> 2,1.613455000000001,1.613454999999999,1.6134550000000003,1.6134550000000005,1.613455000000001,8.455206652451151e-16,85.73,85.73,85.73,85.73,85.73,0.0,35.13000000000002,35.12999999999999,35.13000000000001,35.13000000000001,35.13000000000002,1.3759600911837627e-14,9.79,8.1,9.032499999999999,9.120000000000001,8.1,0.6377450509412048
1 -> 2,1.613455000000001,1.613454999999999,1.6134550000000003,1.6134550000000005,1.613455000000001,8.455206652451151e-16,85.73,85.73,85.73,85.73,85.73,0.0,35.13000000000002,35.12999999999999,35.13000000000001,35.13000000000001,35.13000000000002,1.3759600911837627e-14,9.79,8.1,9.032499999999999,9.120000000000001,8.1,0.6377450509412048
1 -> 2,1.613455000000001,1.613454999999999,1.6134550000000003,1.6134550000000005,1.613455000000001,8.455206652451151e-16,85.73,85.73,85.73,85.73,85.73,0.0,35.13000000000002,35.12999999999999,35.13000000000001,35.13000000000001,35.13000000000002,1.3759600911837627e-14,9.9,8.2,9.2225,9.395,8.2,0.6591803622681734
1 -> 2,1.613455000000001,1.613454999999999,1.6134550000000003,1.6134550000000005,1.613455000000001,8.455206652451151e-16,85.73,85.73,85.73,85.73,85.73,0.0,35.13000000000002,35.12999999999999,35.13000000000001,35.13000000000001,35.13000000000002,1.3759600911837627e-14,9.9,8.2,9.2225,9.395,8.2,0.6591803622681734
1 -> 2,1.613455000000001,1.613454999999999,1.6134550000000003,1.6134550000000005,1.613455000000001,8.455206652451151e-16,85.73,85.73,85.73,85.73,85.73,0.0,35.13000000000002,35.12999999999999,35.13000000000001,35.13000000000001,35.13000000000002,1.3759600911837627e-14,7.07,3.73,5.3549999999999995,5.3100000000000005,3.73,1.2485691811029136
1 -> 2,1.613455000000001,1.613454999999999,1.6134550000000003,1.6134550000000005,1.613455000000001,8.455206652451151e-16,85.73,85.73,85.73,85.73,85.73,0.0,35.13000000000002,35.12999999999999,35.13000000000001,35.13000000000001,35.13000000000002,1.3759600911837627e-14,7.07,3.73,5.3549999999999995,5.3100000000000005,3.73,1.2485691811029136
1 -> 2,1.613455000000001,1.613454999999999,1.6134550000000003,1.6134550000000005,1.613455000000001,8.455206652451151e-16,85.73,85.73,85.73,85.73,85.73,0.0,35.13000000000002,35.12999999999999,35.13000000000001,35.13000000000001,35.13000000000002,1.3759600911837627e-14,2.85,0.52,1.6750000000000003,1.665,0.52,0.8676548853086693
1 -> 2,1.613455000000001,1.613454999999999,1.6134550000000003,1.6134550000000005,1.613455000000001,8.455206652451151e-16,85.73,85.73,85.73,85.73,85.73,0.0,35.13000000000002,35.12999999999999,35.13000000000001,35.13000000000001,35.13000000000002,1.3759600911837627e-14,2.85,0.52,1.6750000000000003,1.665,0.52,0.8676548853086693
1 -> 2,1.618576000000001,1.6185759999999998,1.6185760000000007,1.618576000000001,1.618576000000001,4.710277376051325e-16,85.73,85.73,85.73,85.73,85.73,0.0,35.13000000000002,35.12999999999999,35.13000000000001,35.13000000000001,35.13000000000002,1.3759600911837627e-14,-0.24,-1.66,-1.06,-1.17,-1.66,0.5435071296680476
1 -> 2,1.618576000000001,1.6185759999999998,1.6185760000000007,1.618576000000001,1.618576000000001,4.710277376051325e-16,85.73,85.73,85.73,85.73,85.73,0.0,35.13000000000002,35.12999999999999,35.13000000000001,35.13000000000001,35.13000000000002,1.3759600911837627e-14,-0.24,-1.66,-1.06,-1.17,-1.66,0.5435071296680476
1 -> 2,1.618576000000001,1.6185759999999998,1.6185760000000007,1.618576000000001,1.618576000000001,4.710277376051325e-16,85.73,85.73,85.73,85.73,85.73,0.0,35.13000000000002,35.12999999999999,35.13000000000001,35.13000000000001,35.13000000000002,1.3759600911837627e-14,0.19,-1.59,-0.81,-0.9199999999999999,-1.59,0.6754257916307312
1 -> 2,1.618576000000001,1.6185759999999998,1.6185760000000007,1.618576000000001,1.618576000000001,4.710277376051325e-16,85.73,85.73,85.73,85.73,85.73,0.0,35.13000000000002,35.12999999999999,35.13000000000001,35.13000000000001,35.13000000000002,1.3759600911837627e-14,0.19,-1.59,-0.81,-0.9199999999999999,-1.59,0.6754257916307312
1 -> 2,1.618576000000001,1.6185759999999998,1.6185760000000007,1.618576000000001,1.618576000000001,4.710277376051325e-16,85.73,85.73,85.73,85.73,85.73,0.0,35.13000000000002,35.12999999999999,35.13000000000001,35.13000000000001,35.13000000000002,1.3759600911837627e-14,3.23,1.09,2.255,2.35,1.09,0.8085017006784834
1 -> 2,1.618576000000001,1.6185759999999998,1.6185760000000007,1.618576000000001,1.618576000000001,4.710277376051325e-16,85.73,85.73,85.73,85.73,85.73,0.0,35.13000000000002,35.12999999999999,35.13000000000001,35.13000000000001,35.13000000000002,1.3759600911837627e-14,3.23,1.09,2.255,2.35,1.09,0.8085017006784834
1 -> 2,1.618576000000001,1.6185759999999998,1.6185760000000007,1.618576000000001,1.618576000000001,4.710277376051325e-16,85.73,85.73,85.73,85.73,85.73,0.0,35.13000000000002,35.12999999999999,35.13000000000001,35.13000000000001,35.13000000000002,1.3759600911837627e-14,3.36,1.84,2.72,2.84,1.84,0.5851495535331117
1 -> 2,1.618576000000001,1.6185759999999998,1.6185760000000007,1.618576000000001,1.618576000000001,4.710277376051325e-16,85.73,85.73,85.73,85.73,85.73,0.0,35.13000000000002,35.12999999999999,35.13000000000001,35.13000000000001,35.13000000000002,1.3759600911837627e-14,3.36,1.84,2.72,2.84,1.84,0.5851495535331117
1 -> 2,1.6160150000000009,1.616014999999999,1.6160150000000002,1.6160150000000004,1.6160150000000009,7.611305586242616e-16,85.73,85.73,85.73,85.73,85.73,0.0,35.13000000000002,35.12999999999999,35.13000000000001,35.13000000000001,35.13000000000002,1.3759600911837627e-14,1.13,0.01,0.48249999999999993,0.39499999999999996,0.01,0.42399145038550007
1 -> 2,1.6160150000000009,1.616014999999999,1.6160150000000002,1.6160150000000004,1.6160150000000009,7.611305586242616e-16,85.73,85.73,85.73,85.73,85.73,0.0,35.13000000000002,35.12999999999999,35.13000000000001,35.13000000000001,35.13000000000002,1.3759600911837627e-14,1.13,0.01,0.48249999999999993,0.39499999999999996,0.01,0.42399145038550007
1 -> 2,1.6160150000000009,1.616014999999999,1.6160150000000002,1.6160150000000004,1.6160150000000009,7.611305586242616e-16,85.73,85.73,85.73,85.73,85.73,0.0,35.13000000000002,35.12999999999999,35.13000000000001,35.13000000000001,35.13000000000002,1.3759600911837627e-14,-0.18,-1.06,-0.61,-0.6,-1.06,0.3312099032335839
1 -> 2,1.6160150000000009,1.616014999999999,1.6160150000000002,1.6160150000000004,1.6160150000000009,7.611305586242616e-16,85.73,85.73,85.73,85.73,85.73,0.0,35.13000000000002,35.12999999999999,35.13000000000001,35.13000000000001,35.13000000000002,1.3759600911837627e-14,-0.18,-1.06,-0.61,-0.6,-1.06,0.3312099032335839
1 -> 2,1.6160150000000009,1.616014999999999,1.6160150000000002,1.6160150000000004,1.6160150000000009,7.611305586242616e-16,85.73,85.73,85.73,85.73,85.73,0.0,35.13000000000002,35.12999999999999,35.13000000000001,35.13000000000001,35.13000000000002,1.3759600911837627e-14,-1.01,-1.24,-1.1475,-1.17,-1.24,0.0944391338376205
1 -> 2,1.6160150000000009,1.616014999999999,1.6160150000000002,1.6160150000000004,1.6160150000000009,7.611305586242616e-16,85.73,85.73,85.73,85.73,85.73,0.0,35.13000000000002,35.12999999999999,35.13000000000001,35.13000000000001,35.13000000000002,1.3759600911837627e-14,-1.01,-1.24,-1.1475,-1.17,-1.24,0.0944391338376205
1 -> 2,1.6160150000000009,1.616014999999999,1.6160150000000002,1.6160150000000004,1.6160150000000009,7.611305586242616e-16,85.73,85.73,85.73,85.73,85.73,0.0,35.13000000000002,35.12999999999999,35.13000000000001,35.13000000000001,35.13000000000002,1.3759600911837627e-14,-1.08,-1.95,-1.5125,-1.51,-1.95,0.3302555828445599
1 -> 2,1.6160150000000009,1.616014999999999,1.6160150000000002,1.6160150000000004,1.6160150000000009,7.611305586242616e-16,85.73,85.73,85.73,85.73,85.73,0.0,35.13000000000002,35.12999999999999,35.13000000000001,35.13000000000001,35.13000000000002,1.3759600911837627e-14,-1.08,-1.95,-1.5125,-1.51,-1.95,0.3302555828445599
1 -> 2,1.614735000000001,1.6147350000000003,1.614735000000001,1.614735000000001,1.614735000000001,3.3306690738754696e-16,86.83,86.83,86.83,86.83,86.83,0.0,35.15000000000001,35.149999999999984,35.150000000000006,35.150000000000006,35.15000000000001,1.3759600911837627e-14,-1.86,-2.04,-1.9525000000000001,-1.955,-2.04,0.06378675411086535
1 -> 2,1.614735000000001,1.6147350000000003,1.614735000000001,1.614735000000001,1.614735000000001,3.3306690738754696e-16,86.83,86.83,86.83,86.83,86.83,0.0,35.15000000000001,35.149999999999984,35.150000000000006,35.150000000000006,35.15000000000001,1.3759600911837627e-14,-1.86,-2.04,-1.9525000000000001,-1.955,-2.04,0.06378675411086535
1 -> 2,1.614735000000001,1.6147350000000003,1.614735000000001,1.614735000000001,1.614735000000001,3.3306690738754696e-16,86.83,86.83,86.83,86.83,86.83,0.0,35.15000000000001,35.149999999999984,35.150000000000006,35.150000000000006,35.15000000000001,1.3759600911837627e-14,-2.39,-4.76,-3.56,-3.545,-4.76,0.8927205609819905
1 -> 2,1.614735000000001,1.6147350000000003,1.614735000000001,1.614735000000001,1.614735000000001,3.3306690738754696e-16,86.83,86.83,86.83,86.83,86.83,0.0,35.15000000000001,35.149999999999984,35.150000000000006,35.150000000000006,35.15000000000001,1.3759600911837627e-14,-2.39,-4.76,-3.56,-3.545,-4.76,0.8927205609819905
1 -> 2,1.614735000000001,1.6147350000000003,1.614735000000001,1.614735000000001,1.614735000000001,3.3306690738754696e-16,86.83,86.83,86.83,86.83,86.83,0.0,35.15000000000001,35.149999999999984,35.150000000000006,35.150000000000006,35.15000000000001,1.3759600911837627e-14,-3.97,-5.29,-4.8375,-5.045,-5.29,0.5290262280832586
1 -> 2,1.614735000000001,1.6147350000000003,1.614735000000001,1.614735000000001,1.614735000000001,3.3306690738754696e-16,86.83,86.83,86.83,86.83,86.83,0.0,35.15000000000001,35.149999999999984,35.150000000000006,35.150000000000006,35.15000000000001,1.3759600911837627e-14,-3.97,-5.29,-4.8375,-5.045,-5.29,0.5290262280832586
1 -> 2,1.614735000000001,1.6147350000000003,1.614735000000001,1.614735000000001,1.614735000000001,3.3306690738754696e-16,86.83,86.83,86.83,86.83,86.83,0.0,35.15000000000001,35.149999999999984,35.150000000000006,35.150000000000006,35.15000000000001,1.3759600911837627e-14,1.91,-2.72,-0.4150000000000001,-0.425,-2.72,1.7308162814117505
1 -> 2,1.614735000000001,1.6147350000000003,1.614735000000001,1.614735000000001,1.614735000000001,3.3306690738754696e-16,86.83,86.83,86.83,86.83,86.83,0.0,35.15000000000001,35.149999999999984,35.150000000000006,35.150000000000006,35.15000000000001,1.3759600911837627e-14,1.91,-2.72,-0.4150000000000001,-0.425,-2.72,1.7308162814117505
2 -> 3,1.613455000000001,1.613454999999999,1.6134550000000003,1.6134550000000005,1.613455000000001,8.455206652451151e-16,86.83,86.83,86.83,86.83,86.83,0.0,35.15000000000001,35.149999999999984,35.150000000000006,35.150000000000006,35.15000000000001,1.3759600911837627e-14,5.32,3.28,4.51,4.720000000000001,3.28,0.7909171890912475
2 -> 3,1.613455000000001,1.613454999999999,1.6134550000000003,1.6134550000000005,1.613455000000001,8.455206652451151e-16,86.83,86.83,86.83,86.83,86.83,0.0,35.15000000000001,35.149999999999984,35.150000000000006,35.150000000000006,35.15000000000001,1.3759600911837627e-14,5.32,3.28,4.51,4.720000000000001,3.28,0.7909171890912475
2 -> 3,1.613455000000001,1.613454999999999,1.6134550000000003,1.6134550000000005,1.613455000000001,8.455206652451151e-16,86.83,86.83,86.83,86.83,86.83,0.0,35.15000000000001,35.149999999999984,35.150000000000006,35.150000000000006,35.15000000000001,1.3759600911837627e-14,5.12,2.9,4.085,4.16,2.9,0.8376604323948935
2 -> 3,1.613455000000001,1.613454999999999,1.6134550000000003,1.6134550000000005,1.613455000000001,8.455206652451151e-16,86.83,86.83,86.83,86.83,86.83,0.0,35.15000000000001,35.149999999999984,35.150000000000006,35.150000000000006,35.15000000000001,1.3759600911837627e-14,5.12,2.9,4.085,4.16,2.9,0.8376604323948935
2 -> 3,1.613455000000001,1.613454999999999,1.6134550000000003,1.6134550000000005,1.613455000000001,8.455206652451151e-16,86.83,86.83,86.83,86.83,86.83,0.0,35.15000000000001,35.149999999999984,35.150000000000006,35.150000000000006,35.15000000000001,1.3759600911837627e-14,2.13,0.96,1.44,1.335,0.96,0.4484974916317816
2 -> 3,1.613455000000001,1.613454999999999,1.6134550000000003,1.6134550000000005,1.613455000000001,8.455206652451151e-16,86.83,86.83,86.83,86.83,86.83,0.0,35.15000000000001,35.149999999999984,35.150000000000006,35.150000000000006,35.15000000000001,1.3759600911837627e-14,2.13,0.96,1.44,1.335,0.96,0.4484974916317816
2 -> 3,1.613455000000001,1.613454999999999,1.6134550000000003,1.6134550000000005,1.613455000000001,8.455206652451151e-16,86.83,86.83,86.83,86.83,86.83,0.0,35.15000000000001,35.149999999999984,35.150000000000006,35.150000000000006,35.15000000000001,1.3759600911837627e-14,1.2,0.96,1.11,1.1400000000000001,1.2,0.09949874371066199
2 -> 3,1.613455000000001,1.613454999999999,1.6134550000000003,1.6134550000000005,1.613455000000001,8.455206652451151e-16,86.83,86.83,86.83,86.83,86.83,0.0,35.15000000000001,35.149999999999984,35.150000000000006,35.150000000000006,35.15000000000001,1.3759600911837627e-14,1.2,0.96,1.11,1.1400000000000001,1.2,0.09949874371066199
2 -> 3,1.6121750000000008,1.6121749999999988,1.612175,1.6121750000000001,1.6121750000000008,8.455206652451151e-16,86.83,86.83,86.83,86.83,86.83,0.0,35.15000000000001,35.149999999999984,35.150000000000006,35.150000000000006,35.15000000000001,1.3759600911837627e-14,0.99,-0.55,0.2375,0.255,-0.55,0.5808345289322941
2 -> 3,1.6121750000000008,1.6121749999999988,1.612175,1.6121750000000001,1.6121750000000008,8.455206652451151e-16,86.83,86.83,86.83,86.83,86.83,0.0,35.15000000000001,35.149999999999984,35.150000000000006,35.150000000000006,35.15000000000001,1.3759600911837627e-14,0.99,-0.55,0.2375,0.255,-0.55,0.5808345289322941
2 -> 3,1.6121750000000008,1.6121749999999988,1.612175,1.6121750000000001,1.6121750000000008,8.455206652451151e-16,86.83,86.83,86.83,86.83,86.83,0.0,35.15000000000001,35.149999999999984,35.150000000000006,35.150000000000006,35.15000000000001,1.3759600911837627e-14,-0.82,-0.96,-0.8875,-0.885,-0.96,0.04968651728587948
2 -> 3,1.6121750000000008,1.6121749999999988,1.612175,1.6121750000000001,1.6121750000000008,8.455206652451151e-16,86.83,86.83,86.83,86.83,86.83,0.0,35.15000000000001,35.149999999999984,35.150000000000006,35.150000000000006,35.15000000000001,1.3759600911837627e-14,-0.82,-0.96,-0.8875,-0.885,-0.96,0.04968651728587948
2 -> 3,1.6121750000000008,1.6121749999999988,1.612175,1.6121750000000001,1.6121750000000008,8.455206652451151e-16,86.83,86.83,86.83,86.83,86.83,0.0,35.15000000000001,35.149999999999984,35.150000000000006,35.150000000000006,35.15000000000001,1.3759600911837627e-14,-0.91,-2.56,-1.6350000000000002,-1.5350000000000001,-2.56,0.6252399539376863
2 -> 3,1.6121750000000008,1.6121749999999988,1.612175,1.6121750000000001,1.6121750000000008,8.455206652451151e-16,86.83,86.83,86.83,86.83,86.83,0.0,35.15000000000001,35.149999999999984,35.150000000000006,35.150000000000006,35.15000000000001,1.3759600911837627e-14,-0.91,-2.56,-1.6350000000000002,-1.5350000000000001,-2.56,0.6252399539376863
2 -> 3,1.6121750000000008,1.6121749999999988,1.612175,1.6121750000000001,1.6121750000000008,8.455206652451151e-16,86.83,86.83,86.83,86.83,86.83,0.0,35.15000000000001,35.149999999999984,35.150000000000006,35.150000000000006,35.15000000000001,1.3759600911837627e-14,-3.4,-5.5,-4.532500000000001,-4.615,-5.5,0.792697136364198
