PHASE,EDA_MAX,EDA_MIN,EDA_MEAN,EDA_MEDIAN,EDA_MODE,EDA_SD,EDA_DIFF,HR_MAX,HR_MIN,HR_MEAN,HR_MEDIAN,HR_MODE,HR_SD,HR_DIFF,SKT_MAX,SKT_MIN,SKT_MEAN,SKT_MEDIAN,SKT_MODE,SKT_SD,SKT_DIFF,BVP_MAX,BVP_MIN,BVP_MEAN,BVP_MEDIAN,BVP_MODE,BVP_SD,BVP_DIFF
1 -> 2,1.6846720000000008,1.6846719999999997,1.6846720000000004,1.6846720000000004,1.6846719999999997,5.661048867003676e-16,0.0,63.0,63.0,63.0,63.0,63.0,0.0,0.0,33.79000000000001,33.78999999999999,33.790000000000006,33.790000000000006,33.79000000000001,8.702335715267317e-15,4.736951571734001e-15,55.27,50.45,53.587500000000006,54.315,50.45,1.8638451518299473,-1.3833333333333329
1 -> 2,1.6846720000000008,1.6846719999999997,1.6846720000000004,1.6846720000000004,1.6846719999999997,5.661048867003676e-16,0.0,63.0,63.0,63.0,63.0,63.0,0.0,0.0,33.79000000000001,33.78999999999999,33.790000000000006,33.790000000000006,33.79000000000001,8.702335715267317e-15,4.736951571734001e-15,55.27,50.45,53.587500000000006,54.315,50.45,1.8638451518299473,-1.3833333333333329
1 -> 2,1.6846720000000008,1.6846719999999997,1.6846720000000004,1.6846720000000004,1.6846719999999997,5.661048867003676e-16,0.0,63.0,63.0,63.0,63.0,63.0,0.0,0.0,33.79000000000001,33.78999999999999,33.790000000000006,33.790000000000006,33.79000000000001,8.702335715267317e-15,4.736951571734001e-15,44.29,13.53,29.6625,30.415,13.53,11.519486479439959,-10.253333333333332
1 -> 2,1.6846720000000008,1.6846719999999997,1.6846720000000004,1.6846720000000004,1.6846719999999997,5.661048867003676e-16,0.0,63.0,63.0,63.0,63.0,63.0,0.0,0.0,33.79000000000001,33.78999999999999,33.790000000000006,33.790000000000006,33.79000000000001,8.702335715267317e-15,4.736951571734001e-15,44.29,13.53,29.6625,30.415,13.53,11.519486479439959,-10.253333333333332
1 -> 2,1.6846720000000008,1.6846719999999997,1.6846720000000004,1.6846720000000004,1.6846719999999997,5.661048867003676e-16,0.0,63.0,63.0,63.0,63.0,63.0,0.0,0.0,33.79000000000001,33.78999999999999,33.790000000000006,33.790000000000006,33.79000000000001,8.702335715267317e-15,4.736951571734001e-15,1.64,-32.15,-15.434999999999999,-15.615,-32.15,12.590354442985312,-11.263333333333334
1 -> 2,1.6846720000000008,1.6846719999999997,1.6846720000000004,1.6846720000000004,1.6846719999999997,5.661048867003676e-16,0.0,63.0,63.0,63.0,63.0,63.0,0.0,0.0,33.79000000000001,33.78999999999999,33.790000000000006,33.790000000000006,33.79000000000001,8.702335715267317e-15,4.736951571734001e-15,1.64,-32.15,-15.434999999999999,-15.615,-32.15,12.590354442985312,-11.263333333333334
1 -> 2,1.6846720000000008,1.6846719999999997,1.6846720000000004,1.6846720000000004,1.6846719999999997,5.661048867003676e-16,0.0,63.0,63.0,63.0,63.0,63.0,0.0,0.0,33.79000000000001,33.78999999999999,33.790000000000006,33.790000000000006,33.79000000000001,8.702335715267317e-15,4.736951571734001e-15,-42.8,-69.64,-56.879999999999995,-57.54,-69.64,10.048482472493049,-8.946666666666667
1 -> 2,1.6846720000000008,1.6846719999999997,1.6846720000000004,1.6846720000000004,1.6846719999999997,5.661048867003676e-16,0.0,63.0,63.0,63.0,63.0,63.0,0.0,0.0,33.79000000000001,33.78999999999999,33.790000000000006,33.790000000000006,33.79000000000001,8.702335715267317e-15,4.736951571734001e-15,-42.8,-69.64,-56.879999999999995,-57.54,-69.64,10.048482472493049,-8.946666666666667
1 -> 2,2.100879000000001,2.100879,2.100879000000001,2.100879000000001,2.100879000000001,4.965068306494546e-16,-1.4802973661668753e-16,63.0,63.0,63.0,63.0,63.0,0.0,0.0,33.79000000000001,33.78999999999999,33.790000000000006,33.790000000000006,33.79000000000001,8.702335715267317e-15,4.736951571734001e-15,-75.12,-82.96,-79.42999999999999,-79.82,-82.96,2.9129194976861226,-2.6133333333333297
1 -> 2,2.100879000000001,2.100879,2.100879000000001,2.100879000000001,2.100879000000001,4.965068306494546e-16,-1.4802973661668753e-16,63.0,63.0,63.0,63.0,63.0,0.0,0.0,33.79000000000001,33.78999999999999,33.790000000000006,33.790000000000006,33.79000000000001,8.702335715267317e-15,4.736951571734001e-15,-75.12,-82.96,-79.42999999999999,-79.82,-82.96,2.9129194976861226,-2.6133333333333297
1 -> 2,2.100879000000001,2.100879,2.100879000000001,2.100879000000001,2.100879000000001,4.965068306494546e-16,-1.4802973661668753e-16,63.0,63.0,63.0,63.0,63.0,0.0,0.0,33.79000000000001,33.78999999999999,33.790000000000006,33.790000000000006,33.79000000000001,8.702335715267317e-15,4.736951571734001e-15,-85.77,-103.53,-93.91,-93.16999999999999,-103.53,6.677993710688864,-5.920000000000002
1 -> 2,2.100879000000001,2.100879,2.100879000000001,2.100879000000001,2.100879000000001,4.965068306494546e-16,-1.4802973661668753e-16,63.0,63.0,63.0,63.0,63.0,0.0,0.0,33.79000000000001,33.78999999999999,33.790000000000006,33.790000000000006,33.79000000000001,8.702335715267317e-15,4.736951571734001e-15,-85.77,-103.53,-93.91,-93.16999999999999,-103.53,6.677993710688864,-5.920000000000002
1 -> 2,2.100879000000001,2.100879,2.100879000000001,2.100879000000001,2.100879000000001,4.965068306494546e-16,-1.4802973661668753e-16,63.0,63.0,63.0,63.0,63.0,0.0,0.0,33.79000000000001,33.78999999999999,33.790000000000006,33.790000000000006,33.79000000000001,8.702335715267317e-15,4.736951571734001e-15,-110.97,-120.01,-116.685,-117.88,-120.01,3.468490305594066,-2.596666666666669
1 -> 2,2.100879000000001,2.100879,2.100879000000001,2.100879000000001,2.100879000000001,4.965068306494546e-16,-1.4802973661668753e-16,63.0,63.0,63.0,63.0,63.0,0.0,0.0,33.79000000000001,33.78999999999999,33.790000000000006,33.790000000000006,33.79000000000001,8.702335715267317e-15,4.736951571734001e-15,-110.97,-120.01,-116.685,-117.88,-120.01,3.468490305594066,-2.596666666666669
1 -> 2,2.100879000000001,2.100879,2.100879000000001,2.100879000000001,2.100879000000001,4.965068306494546e-16,-1.4802973661668753e-16,63.0,63.0,63.0,63.0,63.0,0.0,0.0,33.79000000000001,33.78999999999999,33.790000000000006,33.790000000000006,33.79000000000001,8.702335715267317e-15,4.736951571734001e-15,-72.14,-112.73,-93.8625,-95.28999999999999,-112.73,15.240463206543298,13.530000000000001
1 -> 2,2.100879000000001,2.100879,2.100879000000001,2.100879000000001,2.100879000000001,4.965068306494546e-16,-1.4802973661668753e-16,63.0,63.0,63.0,63.0,63.0,0.0,0.0,33.79000000000001,33.78999999999999,33.790000000000006,33.790000000000006,33.79000000000001,8.702335715267317e-15,4.736951571734001e-15,-72.14,-112.73,-93.8625,-95.28999999999999,-112.73,15.240463206543298,13.530000000000001
1 -> 2,2.228942000000001,2.2289419999999986,2.228942,2.228942,2.228942000000001,9.42055475210265e-16,2.9605947323337506e-16,63.0,63.0,63.0,63.0,63.0,0.0,0.0,33.79000000000001,33.78999999999999,33.790000000000006,33.790000000000006,33.79000000000001,8.702335715267317e-15,4.736951571734001e-15,-0.61,-54.74,-27.675,-27.675,-54.74,20.189517701024958,18.043333333333333
1 -> 2,2.228942000000001,2.2289419999999986,2.228942,2.228942,2.228942000000001,9.42055475210265e-16,2.9605947323337506e-16,63.0,63.0,63.0,63.0,63.0,0.0,0.0,33.79000000000001,33.78999999999999,33.790000000000006,33.790000000000006,33.79000000000001,8.702335715267317e-15,4.736951571734001e-15,-0.61,-54.74,-27.675,-27.675,-54.74,20.189517701024958,18.043333333333333
1 -> 2,2.228942000000001,2.2289419999999986,2.228942,2.228942,2.228942000000001,9.42055475210265e-16,2.9605947323337506e-16,63.0,63.0,63.0,63.0,63.0,0.0,0.0,33.79000000000001,33.78999999999999,33.790000000000006,33.790000000000006,33.79000000000001,8.702335715267317e-15,4.736951571734001e-15,47.97,16.31,34.269999999999996,36.4,16.31,12.030675375888087,10.553333333333333
1 -> 2,2.228942000000001,2.2289419999999986,2.228942,2.228942,2.228942000000001,9.42055475210265e-16,2.9605947323337506e-16,63.0,63.0,63.0,63.0,63.0,0.0,0.0,33.79000000000001,33.78999999999999,33.790000000000006,33.790000000000006,33.79000000000001,8.702335715267317e-15,4.736951571734001e-15,47.97,16.31,34.269999999999996,36.4,16.31,12.030675375888087,10.553333333333333
1 -> 2,2.228942000000001,2.2289419999999986,2.228942,2.228942,2.228942000000001,9.42055475210265e-16,2.9605947323337506e-16,63.0,63.0,63.0,63.0,63.0,0.0,0.0,33.79000000000001,33.78999999999999,33.790000000000006,33.790000000000006,33.79000000000001,8.702335715267317e-15,4.736951571734001e-15,48.88,27.44,39.7025,41.245000000000005,27.44,8.187766407879502,-7.146666666666667
1 -> 2,2.228942000000001,2.2289419999999986,2.228942,2.228942,2.228942000000001,9.42055475210265e-16,2.9605947323337506e-16,63.0,63.0,63.0,63.0,63.0,0.0,0.0,33.79000000000001,33.78999999999999,33.790000000000006,33.790000000000006,33.79000000000001,8.702335715267317e-15,4.736951571734001e-15,48.88,27.44,39.7025,41.245000000000005,27.44,8.187766407879502,-7.146666666666667
1 -> 2,2.228942000000001,2.2289419999999986,2.228942,2.228942,2.228942000000001,9.42055475210265e-16,2.9605947323337506e-16,63.0,63.0,63.0,63.0,63.0,0.0,0.0,33.79000000000001,33.78999999999999,33.790000000000006,33.790000000000006,33.79000000000001,8.702335715267317e-15,4.736951571734001e-15,16.37,-9.57,2.2375,1.0750000000000002,-9.57,9.784935807147638,-8.646666666666667
1 -> 2,2.228942000000001,2.2289419999999986,2.228942,2.228942,2.228942000000001,9.42055475210265e-16,2.9605947323337506e-16,63.0,63.0,63.0,63.0,63.0,0.0,0.0,33.79000000000001,33.78999999999999,33.790000000000006,33.790000000000006,33.79000000000001,8.702335715267317e-15,4.736951571734001e-15,16.37,-9.57,2.2375,1.0750000000000002,-9.57,9.784935807147638,-8.646666666666667
1 -> 2,2.276326000000001,2.2763259999999983,2.276326,2.276326,2.276326000000001,1.1102230246251565e-15,4.440892098500626e-16,63.0,63.0,63.0,63.0,63.0,0.0,0.0,33.79000000000001,33.78999999999999,33.790000000000006,33.790000000000006,33.79000000000001,8.702335715267317e-15,4.736951571734001e-15,4.1,-11.75,-5.34,-6.855,-11.75,6.146019036742402,5.283333333333333
1 -> 2,2.276326000000001,2.2763259999999983,2.276326,2.276326,2.276326000000001,1.1102230246251565e-15,4.440892098500626e-16,63.0,63.0,63.0,63.0,63.0,0.0,0.0,33.79000000000001,33.78999999999999,33.790000000000006,33.790000000000006,33.79000000000001,8.702335715267317e-15,4.736951571734001e-15,4.1,-11.75,-5.34,-6.855,-11.75,6.146019036742402,5.283333333333333
1 -> 2,2.276326000000001,2.2763259999999983,2.276326,2.276326,2.276326000000001,1.1102230246251565e-15,4.440892098500626e-16,63.0,63.0,63.0,63.0,63.0,0.0,0.0,33.79000000000001,33.78999999999999,33.790000000000006,33.790000000000006,33.79000000000001,8.702335715267317e-15,4.736951571734001e-15,34.46,12.98,24.270000000000003,24.82,12.98,8.015116967331169,7.16
1 -> 2,2.276326000000001,2.2763259999999983,2.276326,2.276326,2.276326000000001,1.1102230246251565e-15,4.440892098500626e-16,63.0,63.0,63.0,63.0,63.0,0.0,0.0,33.79000000000001,33.78999999999999,33.790000000000006,33.790000000000006,33.79000000000001,8.702335715267317e-15,4.736951571734001e-15,34.46,12.98,24.270000000000003,24.82,12.98,8.015116967331169,7.16
1 -> 2,2.276326000000001,2.2763259999999983,2.276326,2.276326,2.276326000000001,1.1102230246251565e-15,4.440892098500626e-16,63.0,63.0,63.0,63.0,63.0,0.0,0.0,33.79000000000001,33.78999999999999,33.790000000000006,33.790000000000006,33.79000000000001,8.702335715267317e-15,4.736951571734001e-15,68.36,40.51,53.397499999999994,52.36,40.51,10.430437131299916,9.283333333333333
1 -> 2,2.276326000000001,2.2763259999999983,2.276326,2.276326,2.276326000000001,1.1102230246251565e-15,4.440892098500626e-16,63.0,63.0,63.0,63.0,63.0,0.0,0.0,33.79000000000001,33.78999999999999,33.790000000000006,33.790000000000006,33.79000000000001,8.702335715267317e-15,4.736951571734001e-15,68.36,40.51,53.397499999999994,52.36,40.51,10.430437131299916,9.283333333333333
1 -> 2,2.276326000000001,2.2763259999999983,2.276326,2.276326,2.276326000000001,1.1102230246251565e-15,4.440892098500626e-16,63.0,63.0,63.0,63.0,63.0,0.0,0.0,33.79000000000001,33.78999999999999,33.790000000000006,33.790000000000006,33.79000000000001,8.702335715267317e-15,4.736951571734001e-15,105.08,80.77,94.765,96.605,80.77,9.299522837221275,8.103333333333333
1 -> 2,2.276326000000001,2.2763259999999983,2.276326,2.276326,2.276326000000001,1.1102230246251565e-15,4.440892098500626e-16,63.0,63.0,63.0,63.0,63.0,0.0,0.0,33.79000000000001,33.78999999999999,33.790000000000006,33.790000000000006,33.79000000000001,8.702335715267317e-15,4.736951571734001e-15,105.08,80.77,94.765,96.605,80.77,9.299522837221275,8.103333333333333
1 -> 2,2.291694000000001,2.2916939999999992,2.2916940000000006,2.2916940000000006,2.291694000000001,7.691850745534255e-16,-2.9605947323337506e-16,86.0,86.0,86.0,86.0,86.0,0.0,0.0,33.81000000000002,33.80999999999998,33.81,33.81,33.81000000000002,1.6280579355608324e-14,2.3684757858670005e-15,104.6,86.63,96.4075,97.2,86.63,6.790667769078385,-5.989999999999999
1 -> 2,2.291694000000001,2.2916939999999992,2.2916940000000006,2.2916940000000006,2.291694000000001,7.691850745534255e-16,-2.9605947323337506e-16,86.0,86.0,86.0,86.0,86.0,0.0,0.0,33.81000000000002,33.80999999999998,33.81,33.81,33.81000000000002,1.6280579355608324e-14,2.3684757858670005e-15,104.6,86.63,96.4075,97.2,86.63,6.790667769078385,-5.989999999999999
1 -> 2,2.291694000000001,2.2916939999999992,2.2916940000000006,2.2916940000000006,2.291694000000001,7.691850745534255e-16,-2.9605947323337506e-16,86.0,86.0,86.0,86.0,86.0,0.0,0.0,33.81000000000002,33.80999999999998,33.81,33.81,33.81000000000002,1.6280579355608324e-14,2.3684757858670005e-15,78.74,49.83,64.78750000000001,65.29,49.83,10.788441442117577,-9.636666666666665
1 -> 2,2.291694000000001,2.2916939999999992,2.2916940000000006,2.2916940000000006,2.291694000000001,7.691850745534255e-16,-2.9605947323337506e-16,86.0,86.0,86.0,86.0,86.0,0.0,0.0,33.81000000000002,33.80999999999998,33.81,33.81,33.81000000000002,1.6280579355608324e-14,2.3684757858670005e-15,78.74,49.83,64.78750000000001,65.29,49.83,10.788441442117577,-9.636666666666665
1 -> 2,2.291694000000001,2.2916939999999992,2.2916940000000006,2.2916940000000006,2.291694000000001,7.691850745534255e-16,-2.9605947323337506e-16,86.0,86.0,86.0,86.0,86.0,0.0,0.0,33.81000000000002,33.80999999999998,33.81,33.81,33.81000000000002,1.6280579355608324e-14,2.3684757858670005e-15,38.78,4.42,21.919999999999998,22.240000000000002,4.42,12.772446907307934,-11.453333333333333
1 -> 2,2.291694000000001,2.2916939999999992,2.2916940000000006,2.2916940000000006,2.291694000000001,7.691850745534255e-16,-2.9605947323337506e-16,86.0,86.0,86.0,86.0,86.0,0.0,0.0,33.81000000000002,33.80999999999998,33.81,33.81,33.81000000000002,1.6280579355608324e-14,2.3684757858670005e-15,38.78,4.42,21.919999999999998,22.240000000000002,4.42,12.772446907307934,-11.453333333333333
1 -> 2,2.291694000000001,2.2916939999999992,2.2916940000000006,2.2916940000000006,2.291694000000001,7.691850745534255e-16,-2.9605947323337506e-16,86.0,86.0,86.0,86.0,86.0,0.0,0.0,33.81000000000002,33.80999999999998,33.81,33.81,33.81000000000002,1.6280579355608324e-14,2.3684757858670005e-15,-10.08,-61.03,-35.8,-36.045,-61.03,19.10504776230617,-16.98333333333333
1 -> 2,2.291694000000001,2.2916939999999992,2.2916940000000006,2.2916940000000006,2.291694000000001,7.691850745534255e-16,-2.9605947323337506e-16,86.0,86.0,86.0,86.0,86.0,0.0,0.0,33.81000000000002,33.80999999999998,33.81,33.81,33.81000000000002,1.6280579355608324e-14,2.3684757858670005e-15,-10.08,-61.03,-35.8,-36.045,-61.03,19.10504776230617,-16.98333333333333
1 -> 2,2.276326000000001,2.2763259999999983,2.276326,2.276326,2.276326000000001,1.1102230246251565e-15,4.440892098500626e-16,86.0,86.0,86.0,86.0,86.0,0.0,0.0,33.81000000000002,33.80999999999998,33.81,33.81,33.81000000000002,1.6280579355608324e-14,2.3684757858670005e-15,-57.3,-74.28,-68.005,-70.22,-74.28,6.4718409282058245,4.763333333333335
1 -> 2,2.276326000000001,2.2763259999999983,2.276326,2.276326,2.276326000000001,1.1102230246251565e-15,4.440892098500626e-16,86.0,86.0,86.0,86.0,86.0,0.0,0.0,33.81000000000002,33.80999999999998,33.81,33.81,33.81000000000002,1.6280579355608324e-14,2.3684757858670005e-15,-57.3,-74.28,-68.005,-70.22,-74.28,6.4718409282058245,4.763333333333335
1 -> 2,2.276326000000001,2.2763259999999983,2.276326,2.276326,2.276326000000001,1.1102230246251565e-15,4.440892098500626e-16,86.0,86.0,86.0,86.0,86.0,0.0,0.0,33.81000000000002,33.80999999999998,33.81,33.81,33.81000000000002,1.6280579355608324e-14,2.3684757858670005e-15,-11.43,-43.02,-25.67,-24.115000000000002,-43.02,11.890759016984576,10.530000000000001
1 -> 2,2.276326000000001,2.2763259999999983,2.276326,2.276326,2.276326000000001,1.1102230246251565e-15,4.440892098500626e-16,86.0,86.0,86.0,86.0,86.0,0.0,0.0,33.81000000000002,33.80999999999998,33.81,33.81,33.81000000000002,1.6280579355608324e-14,2.3684757858670005e-15,-11.43,-43.02,-25.67,-24.115000000000002,-43.02,11.890759016984576,10.530000000000001
1 -> 2,2.276326000000001,2.2763259999999983,2.276326,2.276326,2.276326000000001,1.1102230246251565e-15,4.440892098500626e-16,86.0,86.0,86.0,86.0,86.0,0.0,0.0,33.81000000000002,33.80999999999998,33.81,33.81,33.81000000000002,1.6280579355608324e-14,2.3684757858670005e-15,14.17,-6.26,2.9375,1.92,-6.26,7.6478538656279245,6.81
1 -> 2,2.276326000000001,2.2763259999999983,2.276326,2.276326,2.276326000000001,1.1102230246251565e-15,4.440892098500626e-16,86.0,86.0,86.0,86.0,86.0,0.0,0.0,33.81000000000002,33.80999999999998,33.81,33.81,33.81000000000002,1.6280579355608324e-14,2.3684757858670005e-15,14.17,-6.26,2.9375,1.92,-6.26,7.6478538656279245,6.81
1 -> 2,2.276326000000001,2.2763259999999983,2.276326,2.276326,2.276326000000001,1.1102230246251565e-15,4.440892098500626e-16,86.0,86.0,86.0,86.0,86.0,0.0,0.0,33.81000000000002,33.80999999999998,33.81,33.81,33.81000000000002,1.6280579355608324e-14,2.3684757858670005e-15,59.48,25.51,43.23,43.965,25.51,12.750527440070861,11.323333333333332
1 -> 2,2.276326000000001,2.2763259999999983,2.276326,2.276326,2.276326000000001,1.1102230246251565e-15,4.440892098500626e-16,86.0,86.0,86.0,86.0,86.0,0.0,0.0,33.81000000000002,33.80999999999998,33.81,33.81,33.81000000000002,1.6280579355608324e-14,2.3684757858670005e-15,59.48,25.51,43.23,43.965,25.51,12.750527440070861,11.323333333333332
1 -> 2,2.272484000000001,2.2724840000000004,2.2724840000000004,2.2724840000000004,2.2724840000000004,3.1401849173675503e-16,0.0,86.0,86.0,86.0,86.0,86.0,0.0,0.0,33.81000000000002,33.80999999999998,33.81,33.81,33.81000000000002,1.6280579355608324e-14,2.3684757858670005e-15,65.67,51.02,60.6425,62.94,51.02,5.866648851772193,-4.69
1 -> 2,2.272484000000001,2.2724840000000004,2.2724840000000004,2.2724840000000004,2.2724840000000004,3.1401849173675503e-16,0.0,86.0,86.0,86.0,86.0,86.0,0.0,0.0,33.81000000000002,33.80999999999998,33.81,33.81,33.81000000000002,1.6280579355608324e-14,2.3684757858670005e-15,65.67,51.02,60.6425,62.94,51.02,5.866648851772193,-4.69
1 -> 2,2.272484000000001,2.2724840000000004,2.2724840000000004,2.2724840000000004,2.2724840000000004,3.1401849173675503e-16,0.0,86.0,86.0,86.0,86.0,86.0,0.0,0.0,33.81000000000002,33.80999999999998,33.81,33.81,33.81000000000002,1.6280579355608324e-14,2.3684757858670005e-15,38.41,19.58,26.417499999999997,23.84,19.58,7.380776974682272,-5.739999999999998
1 -> 2,2.272484000000001,2.2724840000000004,2.2724840000000004,2.2724840000000004,2.2724840000000004,3.1401849173675503e-16,0.0,86.0,86.0,86.0,86.0,86.0,0.0,0.0,33.81000000000002,33.80999999999998,33.81,33.81,33.81000000000002,1.6280579355608324e-14,2.3684757858670005e-15,38.41,19.58,26.417499999999997,23.84,19.58,7.380776974682272,-5.739999999999998
1 -> 2,2.272484000000001,2.2724840000000004,2.2724840000000004,2.2724840000000004,2.2724840000000004,3.1401849173675503e-16,0.0,86.0,86.0,86.0,86.0,86.0,0.0,0.0,33.81000000000002,33.80999999999998,33.81,33.81,33.81000000000002,1.6280579355608324e-14,2.3684757858670005e-15,76.16,32.17,56.165,58.165,32.17,16.827704091764865,14.663333333333332
1 -> 2,2.272484000000001,2.2724840000000004,2.2724840000000004,2.2724840000000004,2.2724840000000004,3.1401849173675503e-16,0.0,86.0,86.0,86.0,86.0,86.0,0.0,0.0,33.81000000000002,33.80999999999998,33.81,33.81,33.81000000000002,1.6280579355608324e-14,2.3684757858670005e-15,76.16,32.17,56.165,58.165,32.17,16.827704091764865,14.663333333333332
1 -> 2,2.272484000000001,2.2724840000000004,2.2724840000000004,2.2724840000000004,2.2724840000000004,3.1401849173675503e-16,0.0,86.0,86.0,86.0,86.0,86.0,0.0,0.0,33.81000000000002,33.80999999999998,33.81,33.81,33.81000000000002,1.6280579355608324e-14,2.3684757858670005e-15,71.52,-22.47,29.362499999999997,34.2,-22.47,35.608252817991506,-31.33
1 -> 2,2.272484000000001,2.2724840000000004,2.2724840000000004,2.2724840000000004,2.2724840000000004,3.1401849173675503e-16,0.0,86.0,86.0,86.0,86.0,86.0,0.0,0.0,33.81000000000002,33.80999999999998,33.81,33.81,33.81000000000002,1.6280579355608324e-14,2.3684757858670005e-15,71.52,-22.47,29.362499999999997,34.2,-22.47,35.608252817991506,-31.33
1 -> 2,2.276326000000001,2.2763259999999983,2.276326,2.276326,2.276326000000001,1.1102230246251565e-15,4.440892098500626e-16,86.0,86.0,86.0,86.0,86.0,0.0,0.0,33.81000000000002,33.80999999999998,33.81,33.81,33.81000000000002,1.6280579355608324e-14,2.3684757858670005e-15,-61.6,-136.11,-102.87,-106.88499999999999,-136.11,28.034217485066357,-24.836666666666673
1 -> 2,2.276326000000001,2.2763259999999983,2.276326,2.276326,2.276326000000001,1.1102230246251565e-15,4.440892098500626e-16,86.0,86.0,86.0,86.0,86.0,0.0,0.0,33.81000000000002,33.80999999999998,33.81,33.81,33.81000000000002,1.6280579355608324e-14,2.3684757858670005e-15,-61.6,-136.11,-102.87,-106.88499999999999,-136.11,28.034217485066357,-24.836666666666673
1 -> 2,2.276326000000001,2.2763259999999983,2.276326,2.276326,2.276326000000001,1.1102230246251565e-15,4.440892098500626e-16,86.0,86.0,86.0,86.0,86.0,0.0,0.0,33.81000000000002,33.80999999999998,33.81,33.81,33.81000000000002,1.6280579355608324e-14,2.3684757858670005e-15,-147.13,-156.86,-153.4925,-154.99,-156.86,3.8375016286641532,-3.0
1 -> 2,2.276326000000001,2.2763259999999983,2.276326,2.276326,2.276326000000001,1.1102230246251565e-15,4.440892098500626e-16,86.0,86.0,86.0,86.0,86.0,0.0,0.0,33.81000000000002,33.80999999999998,33.81,33.81,33.81000000000002,1.6280579355608324e-14,2.3684757858670005e-15,-147.13,-156.86,-153.4925,-154.99,-156.86,3.8375016286641532,-3.0
1 -> 2,2.276326000000001,2.2763259999999983,2.276326,2.276326,2.276326000000001,1.1102230246251565e-15,4.440892098500626e-16,86.0,86.0,86.0,86.0,86.0,0.0,0.0,33.81000000000002,33.80999999999998,33.81,33.81,33.81000000000002,1.6280579355608324e-14,2.3684757858670005e-15,-126.87,-151.7,-139.6075,-139.93,-151.7,9.321704176275919,8.276666666666662
1 -> 2,2.276326000000001,2.2763259999999983,2.276326,2.276326,2.276326000000001,1.1102230246251565e-15,4.440892098500626e-16,86.0,86.0,86.0,86.0,86.0,0.0,0.0,33.81000000000002,33.80999999999998,33.81,33.81,33.81000000000002,1.6280579355608324e-14,2.3684757858670005e-15,-126.87,-151.7,-139.6075,-139.93,-151.7,9.321704176275919,8.276666666666662
1 -> 2,2.276326000000001,2.2763259999999983,2.276326,2.276326,2.276326000000001,1.1102230246251565e-15,4.440892098500626e-16,86.0,86.0,86.0,86.0,86.0,0.0,0.0,33.81000000000002,33.80999999999998,33.81,33.81,33.81000000000002,1.6280579355608324e-14,2.3684757858670005e-15,-102.8,-119.54,-111.13000000000001,-111.09,-119.54,6.193403749151191,5.580000000000003
1 -> 2,2.276326000000001,2.2763259999999983,2.276326,2.276326,2.276326000000001,1.1102230246251565e-15,4.440892098500626e-16,86.0,86.0,86.0,86.0,86.0,0.0,0.0,33.81000000000002,33.80999999999998,33.81,33.81,33.81000000000002,1.6280579355608324e-14,2.3684757858670005e-15,-102.8,-119.54,-111.13000000000001,-111.09,-119.54,6.193403749151191,5.580000000000003
1 -> 2,2.290413000000001,2.2904129999999996,2.290413,2.290413,2.2904129999999996,7.021666937153402e-16,0.0,85.0,85.0,85.0,85.0,85.0,0.0,0.0,33.79000000000001,33.78999999999999,33.790000000000006,33.790000000000006,33.79000000000001,8.702335715267317e-15,4.736951571734001e-15,-61.47,-95.4,-79.21000000000001,-79.98500000000001,-95.4,12.702568637877935,11.310000000000002
1 -> 2,2.290413000000001,2.2904129999999996,2.290413,2.290413,2.2904129999999996,7.021666937153402e-16,0.0,85.0,85.0,85.0,85.0,85.0,0.0,0.0,33.79000000000001,33.78999999999999,33.790000000000006,33.790000000000006,33.79000000000001,8.702335715267317e-15,4.736951571734001e-15,-61.47,-95.4,-79.21000000000001,-79.98500000000001,-95.4,12.702568637877935,11.310000000000002
1 -> 2,2.290413000000001,2.2904129999999996,2.290413,2.290413,2.2904129999999996,7.021666937153402e-16,0.0,85.0,85.0,85.0,85.0,85.0,0.0,0.0,33.79000000000001,33.78999999999999,33.790000000000006,33.790000000000006,33.79000000000001,8.702335715267317e-15,4.736951571734001e-15,-19.55,-48.83,-33.275,-32.36,-48.83,10.957010313037037,9.76
1 -> 2,2.290413000000001,2.2904129999999996,2.290413,2.290413,2.2904129999999996,7.021666937153402e-16,0.0,85.0,85.0,85.0,85.0,85.0,0.0,0.0,33.79000000000001,33.78999999999999,33.790000000000006,33.790000000000006,33.79000000000001,8.702335715267317e-15,4.736951571734001e-15,-19.55,-48.83,-33.275,-32.36,-48.83,10.957010313037037,9.76
1 -> 2,2.290413000000001,2.2904129999999996,2.290413,2.290413,2.2904129999999996,7.021666937153402e-16,0.0,85.0,85.0,85.0,85.0,85.0,0.0,0.0,33.79000000000001,33.78999999999999,33.790000000000006,33.790000000000006,33.79000000000001,8.702335715267317e-15,4.736951571734001e-15,-3.53,-13.45,-7.87,-7.25,-13.45,3.743481000352479,3.3066666666666666
1 -> 2,2.290413000000001,2.2904129999999996,2.290413,2.290413,2.2904129999999996,7.021666937153402e-16,0.0,85.0,85.0,85.0,85.0,85.0,0.0,0.0,33.79000000000001,33.78999999999999,33.790000000000006,33.790000000000006,33.79000000000001,8.702335715267317e-15,4.736951571734001e-15,-3.53,-13.45,-7.87,-7.25,-13.45,3.743481000352479,3.3066666666666666
1 -> 2,2.290413000000001,2.2904129999999996,2.290413,2.290413,2.2904129999999996,7.021666937153402e-16,0.0,85.0,85.0,85.0,85.0,85.0,0.0,0.0,33.79000000000001,33.78999999999999,33.790000000000006,33.790000000000006,33.79000000000001,8.702335715267317e-15,4.736951571734001e-15,-2.14,-2.45,-2.31,-2.325,-2.45,0.11979148550710944,0.020000000000000018
1 -> 2,2.290413000000001,2.2904129999999996,2.290413,2.290413,2.2904129999999996,7.021666937153402e-16,0.0,85.0,85.0,85.0,85.0,85.0,0.0,0.0,33.79000000000001,33.78999999999999,33.790000000000006,33.790000000000006,33.79000000000001,8.702335715267317e-15,4.736951571734001e-15,-2.14,-2.45,-2.31,-2.325,-2.45,0.11979148550710944,0.020000000000000018
1 -> 2,2.3313930000000007,2.3313929999999985,2.3313929999999994,2.3313930000000003,2.3313930000000007,1.041481514324134e-15,2.9605947323337506e-16,85.0,85.0,85.0,85.0,85.0,0.0,0.0,33.79000000000001,33.78999999999999,33.790000000000006,33.790000000000006,33.79000000000001,8.702335715267317e-15,4.736951571734001e-15,0.23,-2.23,-1.075,-1.1500000000000001,-2.23,0.9340904667107999,0.82
1 -> 2,2.3313930000000007,2.3313929999999985,2.3313929999999994,2.3313930000000003,2.3313930000000007,1.041481514324134e-15,2.9605947323337506e-16,85.0,85.0,85.0,85.0,85.0,0.0,0.0,33.79000000000001,33.78999999999999,33.790000000000006,33.790000000000006,33.79000000000001,8.702335715267317e-15,4.736951571734001e-15,0.23,-2.23,-1.075,-1.1500000000000001,-2.23,0.9340904667107999,0.82
1 -> 2,2.3313930000000007,2.3313929999999985,2.3313929999999994,2.3313930000000003,2.3313930000000007,1.041481514324134e-15,2.9605947323337506e-16,85.0,85.0,85.0,85.0,85.0,0.0,0.0,33.79000000000001,33.78999999999999,33.790000000000006,33.790000000000006,33.79000000000001,8.702335715267317e-15,4.736951571734001e-15,0.65,-3.38,-0.94,-0.515,-3.38,1.5704617155473737,-1.343333333333333
1 -> 2,2.3313930000000007,2.3313929999999985,2.3313929999999994,2.3313930000000003,2.3313930000000007,1.041481514324134e-15,2.9605947323337506e-16,85.0,85.0,85.0,85.0,85.0,0.0,0.0,33.79000000000001,33.78999999999999,33.790000000000006,33.790000000000006,33.79000000000001,8.702335715267317e-15,4.736951571734001e-15,0.65,-3.38,-0.94,-0.515,-3.38,1.5704617155473737,-1.343333333333333
1 -> 2,2.3313930000000007,2.3313929999999985,2.3313929999999994,2.3313930000000003,2.3313930000000007,1.041481514324134e-15,2.9605947323337506e-16,85.0,85.0,85.0,85.0,85.0,0.0,0.0,33.79000000000001,33.78999999999999,33.790000000000006,33.790000000000006,33.79000000000001,8.702335715267317e-15,4.736951571734001e-15,-5.7,-8.55,-7.57,-8.015,-8.55,1.1436564169364853,-0.9166666666666664
1 -> 2,2.3313930000000007,2.3313929999999985,2.3313929999999994,2.3313930000000003,2.3313930000000007,1.041481514324134e-15,2.9605947323337506e-16,85.0,85.0,85.0,85.0,85.0,0.0,0.0,33.79000000000001,33.78999999999999,33.790000000000006,33.790000000000006,33.79000000000001,8.702335715267317e-15,4.736951571734001e-15,-5.7,-8.55,-7.57,-8.015,-8.55,1.1436564169364853,-0.9166666666666664
1 -> 2,2.3313930000000007,2.3313929999999985,2.3313929999999994,2.3313930000000003,2.3313930000000007,1.041481514324134e-15,2.9605947323337506e-16,85.0,85.0,85.0,85.0,85.0,0.0,0.0,33.79000000000001,33.78999999999999,33.790000000000006,33.790000000000006,33.79000000000001,8.702335715267317e-15,4.736951571734001e-15,-0.38,-7.43,-4.204999999999999,-4.505,-7.43,2.644451739018884,2.35
1 -> 2,2.3313930000000007,2.3313929999999985,2.3313929999999994,2.3313930000000003,2.3313930000000007,1.041481514324134e-15,2.9605947323337506e-16,85.0,85.0,85.0,85.0,85.0,0.0,0.0,33.79000000000001,33.78999999999999,33.790000000000006,33.790000000000006,33.79000000000001,8.702335715267317e-15,4.736951571734001e-15,-0.38,-7.43,-4.204999999999999,-4.505,-7.43,2.644451739018884,2.35
1 -> 2,2.359567000000001,2.359566999999999,2.359567,2.359567,2.359566999999999,1.1322097734007351e-15,0.0,85.0,85.0,85.0,85.0,85.0,0.0,0.0,33.79000000000001,33.78999999999999,33.790000000000006,33.790000000000006,33.79000000000001,8.702335715267317e-15,4.736951571734001e-15,15.68,3.2,9.44,9.44,3.2,4.6669101126976935,4.16
1 -> 2,2.359567000000001,2.359566999999999,2.359567,2.359567,2.359566999999999,1.1322097734007351e-15,0.0,85.0,85.0,85.0,85.0,85.0,0.0,0.0,33.79000000000001,33.78999999999999,33.790000000000006,33.790000000000006,33.79000000000001,8.702335715267317e-15,4.736951571734001e-15,15.68,3.2,9.44,9.44,3.2,4.6669101126976935,4.16
1 -> 2,2.359567000000001,2.359566999999999,2.359567,2.359567,2.359566999999999,1.1322097734007351e-15,0.0,85.0,85.0,85.0,85.0,85.0,0.0,0.0,33.79000000000001,33.78999999999999,33.790000000000006,33.790000000000006,33.79000000000001,8.702335715267317e-15,4.736951571734001e-15,23.86,19.11,21.96,22.435,19.11,1.831406563273158,1.5833333333333333
1 -> 2,2.359567000000001,2.359566999999999,2.359567,2.359567,2.359566999999999,1.1322097734007351e-15,0.0,85.0,85.0,85.0,85.0,85.0,0.0,0.0,33.79000000000001,33.78999999999999,33.790000000000006,33.790000000000006,33.79000000000001,8.702335715267317e-15,4.736951571734001e-15,23.86,19.11,21.96,22.435,19.11,1.831406563273158,1.5833333333333333
1 -> 2,2.359567000000001,2.359566999999999,2.359567,2.359567,2.359566999999999,1.1322097734007351e-15,0.0,85.0,85.0,85.0,85.0,85.0,0.0,0.0,33.79000000000001,33.78999999999999,33.790000000000006,33.790000000000006,33.79000000000001,8.702335715267317e-15,4.736951571734001e-15,23.61,18.08,21.217499999999998,21.59,18.08,2.098372881544175,-1.8433333333333337
1 -> 2,2.359567000000001,2.359566999999999,2.359567,2.359567,2.359566999999999,1.1322097734007351e-15,0.0,85.0,85.0,85.0,85.0,85.0,0.0,0.0,33.79000000000001,33.78999999999999,33.790000000000006,33.790000000000006,33.79000000000001,8.702335715267317e-15,4.736951571734001e-15,23.61,18.08,21.217499999999998,21.59,18.08,2.098372881544175,-1.8433333333333337
1 -> 2,2.359567000000001,2.359566999999999,2.359567,2.359567,2.359566999999999,1.1322097734007351e-15,0.0,85.0,85.0,85.0,85.0,85.0,0.0,0.0,33.79000000000001,33.78999999999999,33.790000000000006,33.790000000000006,33.79000000000001,8.702335715267317e-15,4.736951571734001e-15,15.03,5.62,10.24,10.155000000000001,5.62,3.516212450919312,-3.1366666666666667
1 -> 2,2.359567000000001,2.359566999999999,2.359567,2.359567,2.359566999999999,1.1322097734007351e-15,0.0,85.0,85.0,85.0,85.0,85.0,0.0,0.0,33.79000000000001,33.78999999999999,33.790000000000006,33.790000000000006,33.79000000000001,8.702335715267317e-15,4.736951571734001e-15,15.03,5.62,10.24,10.155000000000001,5.62,3.516212450919312,-3.1366666666666667
1 -> 2,2.3442000000000007,2.3441999999999994,2.3442,2.3442000000000003,2.3442000000000007,6.661338147750939e-16,1.4802973661668753e-16,85.0,85.0,85.0,85.0,85.0,0.0,0.0,33.79000000000001,33.78999999999999,33.790000000000006,33.790000000000006,33.79000000000001,8.702335715267317e-15,4.736951571734001e-15,3.09,-2.33,0.23750000000000004,0.09499999999999997,-2.33,2.02088316089773,-1.8066666666666666
1 -> 2,2.3442000000000007,2.3441999999999994,2.3442,2.3442000000000003,2.3442000000000007,6.661338147750939e-16,1.4802973661668753e-16,85.0,85.0,85.0,85.0,85.0,0.0,0.0,33.79000000000001,33.78999999999999,33.790000000000006,33.790000000000006,33.79000000000001,8.702335715267317e-15,4.736951571734001e-15,3.09,-2.33,0.23750000000000004,0.09499999999999997,-2.33,2.02088316089773,-1.8066666666666666
1 -> 2,2.3442000000000007,2.3441999999999994,2.3442,2.3442000000000003,2.3442000000000007,6.661338147750939e-16,1.4802973661668753e-16,85.0,85.0,85.0,85.0,85.0,0.0,0.0,33.79000000000001,33.78999999999999,33.790000000000006,33.790000000000006,33.79000000000001,8.702335715267317e-15,4.736951571734001e-15,-3.74,-6.87,-5.445,-5.585,-6.87,1.1801377038295149,-1.0433333333333332
1 -> 2,2.3442000000000007,2.3441999999999994,2.3442,2.3442000000000003,2.3442000000000007,6.661338147750939e-16,1.4802973661668753e-16,85.0,85.0,85.0,85.0,85.0,0.0,0.0,33.79000000000001,33.78999999999999,33.790000000000006,33.790000000000006,33.79000000000001,8.702335715267317e-15,4.736951571734001e-15,-3.74,-6.87,-5.445,-5.585,-6.87,1.1801377038295149,-1.0433333333333332
1 -> 2,2.3442000000000007,2.3441999999999994,2.3442,2.3442000000000003,2.3442000000000007,6.661338147750939e-16,1.4802973661668753e-16,85.0,85.0,85.0,85.0,85.0,0.0,0.0,33.79000000000001,33.78999999999999,33.790000000000006,33.790000000000006,33.79000000000001,8.702335715267317e-15,4.736951571734001e-15,-5.17,-7.11,-6.3025,-6.465,-7.11,0.7482437771207993,0.6466666666666668
1 -> 2,2.3442000000000007,2.3441999999999994,2.3442,2.3442000000000003,2.3442000000000007,6.661338147750939e-16,1.4802973661668753e-16,85.0,85.0,85.0,85.0,85.0,0.0,0.0,33.79000000000001,33.78999999999999,33.790000000000006,33.790000000000006,33.79000000000001,8.702335715267317e-15,4.736951571734001e-15,-5.17,-7.11,-6.3025,-6.465,-7.11,0.7482437771207993,0.6466666666666668
1 -> 2,2.3442000000000007,2.3441999999999994,2.3442,2.3442000000000003,2.3442000000000007,6.661338147750939e-16,1.4802973661668753e-16,85.0,85.0,85.0,85.0,85.0,0.0,0.0,33.79000000000001,33.78999999999999,33.790000000000006,33.790000000000006,33.79000000000001,8.702335715267317e-15,4.736951571734001e-15,-3.07,-4.27,-3.545,-3.42,-4.27,0.46224993239588463,0.3999999999999999
1 -> 2,2.3442000000000007,2.3441999999999994,2.3442,2.3442000000000003,2.3442000000000007,6.661338147750939e-16,1.4802973661668753e-16,85.0,85.0,85.0,85.0,85.0,0.0,0.0,33.79000000000001,33.78999999999999,33.790000000000006,33.790000000000006,33.79000000000001,8.702335715267317e-15,4.736951571734001e-15,-3.07,-4.27,-3.545,-3.42,-4.27,0.46224993239588463,0.3999999999999999
1 -> 2,2.337797000000001,2.3377969999999992,2.3377970000000006,2.337797000000001,2.337797000000001,7.364386412590295e-16,4.440892098500626e-16,85.0,85.0,85.0,85.0,85.0,0.0,0.0,33.83000000000001,33.829999999999984,33.83,33.83,33.83000000000001,1.2809491335957507e-14,2.3684757858670005e-15,-1.56,-3.01,-2.475,-2.665,-3.01,0.5656191298037929,0.4833333333333332
1 -> 2,2.337797000000001,2.3377969999999992,2.3377970000000006,2.337797000000001,2.337797000000001,7.364386412590295e-16,4.440892098500626e-16,85.0,85.0,85.0,85.0,85.0,0.0,0.0,33.83000000000001,33.829999999999984,33.83,33.83,33.83000000000001,1.2809491335957507e-14,2.3684757858670005e-15,-1.56,-3.01,-2.475,-2.665,-3.01,0.5656191298037929,0.4833333333333332
1 -> 2,2.337797000000001,2.3377969999999992,2.3377970000000006,2.337797000000001,2.337797000000001,7.364386412590295e-16,4.440892098500626e-16,85.0,85.0,85.0,85.0,85.0,0.0,0.0,33.83000000000001,33.829999999999984,33.83,33.83,33.83000000000001,1.2809491335957507e-14,2.3684757858670005e-15,11.02,0.1,5.085,4.609999999999999,0.1,4.106242199383762,3.6399999999999992
1 -> 2,2.337797000000001,2.3377969999999992,2.3377970000000006,2.337797000000001,2.337797000000001,7.364386412590295e-16,4.440892098500626e-16,85.0,85.0,85.0,85.0,85.0,0.0,0.0,33.83000000000001,33.829999999999984,33.83,33.83,33.83000000000001,1.2809491335957507e-14,2.3684757858670005e-15,11.02,0.1,5.085,4.609999999999999,0.1,4.106242199383762,3.6399999999999992
1 -> 2,2.337797000000001,2.3377969999999992,2.3377970000000006,2.337797000000001,2.337797000000001,7.364386412590295e-16,4.440892098500626e-16,85.0,85.0,85.0,85.0,85.0,0.0,0.0,33.83000000000001,33.829999999999984,33.83,33.83,33.83000000000001,1.2809491335957507e-14,2.3684757858670005e-15,24.74,15.85,21.01,21.725,15.85,3.4057671676143686,2.963333333333333
1 -> 2,2.337797000000001,2.3377969999999992,2.3377970000000006,2.337797000000001,2.337797000000001,7.364386412590295e-16,4.440892098500626e-16,85.0,85.0,85.0,85.0,85.0,0.0,0.0,33.83000000000001,33.829999999999984,33.83,33.83,33.83000000000001,1.2809491335957507e-14,2.3684757858670005e-15,24.74,15.85,21.01,21.725,15.85,3.4057671676143686,2.963333333333333
1 -> 2,2.337797000000001,2.3377969999999992,2.3377970000000006,2.337797000000001,2.337797000000001,7.364386412590295e-16,4.440892098500626e-16,85.0,85.0,85.0,85.0,85.0,0.0,0.0,33.83000000000001,33.829999999999984,33.83,33.83,33.83000000000001,1.2809491335957507e-14,2.3684757858670005e-15,24.53,17.83,21.4825,21.785,17.83,2.533134175285629,-2.2333333333333343
1 -> 2,2.337797000000001,2.3377969999999992,2.3377970000000006,2.337797000000001,2.337797000000001,7.364386412590295e-16,4.440892098500626e-16,85.0,85.0,85.0,85.0,85.0,0.0,0.0,33.83000000000001,33.829999999999984,33.83,33.83,33.83000000000001,1.2809491335957507e-14,2.3684757858670005e-15,24.53,17.83,21.4825,21.785,17.83,2.533134175285629,-2.2333333333333343
1 -> 2,2.335235000000001,2.3352349999999986,2.335235,2.3352350000000004,2.335235000000001,9.155133597044475e-16,4.440892098500626e-16,85.0,85.0,85.0,85.0,85.0,0.0,0.0,33.83000000000001,33.829999999999984,33.83,33.83,33.83000000000001,1.2809491335957507e-14,2.3684757858670005e-15,15.0,7.0,10.945,10.89,7.0,2.9834250451452604,-2.6666666666666665
1 -> 2,2.335235000000001,2.3352349999999986,2.335235,2.3352350000000004,2.335235000000001,9.155133597044475e-16,4.440892098500626e-16,85.0,85.0,85.0,85.0,85.0,0.0,0.0,33.83000000000001,33.829999999999984,33.83,33.83,33.83000000000001,1.2809491335957507e-14,2.3684757858670005e-15,15.0,7.0,10.945,10.89,7.0,2.9834250451452604,-2.6666666666666665
1 -> 2,2.335235000000001,2.3352349999999986,2.335235,2.3352350000000004,2.335235000000001,9.155133597044475e-16,4.440892098500626e-16,85.0,85.0,85.0,85.0,85.0,0.0,0.0,33.83000000000001,33.829999999999984,33.83,33.83,33.83000000000001,1.2809491335957507e-14,2.3684757858670005e-15,4.71,2.23,3.165,2.86,2.23,0.9343848243630672,-0.6666666666666666
1 -> 2,2.335235000000001,2.3352349999999986,2.335235,2.3352350000000004,2.335235000000001,9.155133597044475e-16,4.440892098500626e-16,85.0,85.0,85.0,85.0,85.0,0.0,0.0,33.83000000000001,33.829999999999984,33.83,33.83,33.83000000000001,1.2809491335957507e-14,2.3684757858670005e-15,4.71,2.23,3.165,2.86,2.23,0.9343848243630672,-0.6666666666666666
1 -> 2,2.335235000000001,2.3352349999999986,2.335235,2.3352350000000004,2.335235000000001,9.155133597044475e-16,4.440892098500626e-16,85.0,85.0,85.0,85.0,85.0,0.0,0.0,33.83000000000001,33.829999999999984,33.83,33.83,33.83000000000001,1.2809491335957507e-14,2.3684757858670005e-15,14.44,4.57,9.442499999999999,9.379999999999999,4.57,3.712555555139882,3.2899999999999996
1 -> 2,2.335235000000001,2.3352349999999986,2.335235,2.3352350000000004,2.335235000000001,9.155133597044475e-16,4.440892098500626e-16,85.0,85.0,85.0,85.0,85.0,0.0,0.0,33.83000000000001,33.829999999999984,33.83,33.83,33.83000000000001,1.2809491335957507e-14,2.3684757858670005e-15,14.44,4.57,9.442499999999999,9.379999999999999,4.57,3.712555555139882,3.2899999999999996
1 -> 2,2.335235000000001,2.3352349999999986,2.335235,2.3352350000000004,2.335235000000001,9.155133597044475e-16,4.440892098500626e-16,85.0,85.0,85.0,85.0,85.0,0.0,0.0,33.83000000000001,33.829999999999984,33.83,33.83,33.83000000000001,1.2809491335957507e-14,2.3684757858670005e-15,16.52,10.13,14.36,15.395,10.13,2.598663117835784,-2.113333333333333
1 -> 2,2.335235000000001,2.3352349999999986,2.335235,2.3352350000000004,2.335235000000001,9.155133597044475e-16,4.440892098500626e-16,85.0,85.0,85.0,85.0,85.0,0.0,0.0,33.83000000000001,33.829999999999984,33.83,33.83,33.83000000000001,1.2809491335957507e-14,2.3684757858670005e-15,16.52,10.13,14.36,15.395,10.13,2.598663117835784,-2.113333333333333
1 -> 2,2.318587000000001,2.318586999999999,2.318587,2.318587,2.318586999999999,8.881784197001252e-16,0.0,85.0,85.0,85.0,85.0,85.0,0.0,0.0,33.83000000000001,33.829999999999984,33.83,33.83,33.83000000000001,1.2809491335957507e-14,2.3684757858670005e-15,4.64,-9.62,-3.065,-3.64,-9.62,5.375790639524571,-4.753333333333333
1 -> 2,2.318587000000001,2.318586999999999,2.318587,2.318587,2.318586999999999,8.881784197001252e-16,0.0,85.0,85.0,85.0,85.0,85.0,0.0,0.0,33.83000000000001,33.829999999999984,33.83,33.83,33.83000000000001,1.2809491335957507e-14,2.3684757858670005e-15,4.64,-9.62,-3.065,-3.64,-9.62,5.375790639524571,-4.753333333333333
1 -> 2,2.318587000000001,2.318586999999999,2.318587,2.318587,2.318586999999999,8.881784197001252e-16,0.0,85.0,85.0,85.0,85.0,85.0,0.0,0.0,33.83000000000001,33.829999999999984,33.83,33.83,33.83000000000001,1.2809491335957507e-14,2.3684757858670005e-15,-11.28,-14.86,-12.5625,-12.055,-14.86,1.380622595063546,-1.1933333333333334
1 -> 2,2.318587000000001,2.318586999999999,2.318587,2.318587,2.318586999999999,8.881784197001252e-16,0.0,85.0,85.0,85.0,85.0,85.0,0.0,0.0,33.83000000000001,33.829999999999984,33.83,33.83,33.83000000000001,1.2809491335957507e-14,2.3684757858670005e-15,-11.28,-14.86,-12.5625,-12.055,-14.86,1.380622595063546,-1.1933333333333334
1 -> 2,2.318587000000001,2.318586999999999,2.318587,2.318587,2.318586999999999,8.881784197001252e-16,0.0,85.0,85.0,85.0,85.0,85.0,0.0,0.0,33.83000000000001,33.829999999999984,33.83,33.83,33.83000000000001,1.2809491335957507e-14,2.3684757858670005e-15,-20.64,-55.86,-37.2975,-36.345,-55.86,13.232173621518122,-11.74
1 -> 2,2.318587000000001,2.318586999999999,2.318587,2.318587,2.318586999999999,8.881784197001252e-16,0.0,85.0,85.0,85.0,85.0,85.0,0.0,0.0,33.83000000000001,33.829999999999984,33.83,33.83,33.83000000000001,1.2809491335957507e-14,2.3684757858670005e-15,-20.64,-55.86,-37.2975,-36.345,-55.86,13.232173621518122,-11.74
1 -> 2,2.318587000000001,2.318586999999999,2.318587,2.318587,2.318586999999999,8.881784197001252e-16,0.0,85.0,85.0,85.0,85.0,85.0,0.0,0.0,33.83000000000001,33.829999999999984,33.83,33.83,33.83000000000001,1.2809491335957507e-14,2.3684757858670005e-15,-67.94,-85.59,-78.38,-79.995,-85.59,6.7566744778774135,-5.8833333333333355
1 -> 2,2.318587000000001,2.318586999999999,2.318587,2.318587,2.318586999999999,8.881784197001252e-16,0.0,85.0,85.0,85.0,85.0,85.0,0.0,0.0,33.83000000000001,33.829999999999984,33.83,33.83,33.83000000000001,1.2809491335957507e-14,2.3684757858670005e-15,-67.94,-85.59,-78.38,-79.995,-85.59,6.7566744778774135,-5.8833333333333355
1 -> 2,2.318587000000001,2.318586999999999,2.318587,2.318587,2.318586999999999,8.881784197001252e-16,0.0,85.0,85.0,85.0,85.0,85.0,0.0,0.0,33.83000000000001,33.829999999999984,33.83,33.83,33.83000000000001,1.2809491335957507e-14,2.3684757858670005e-15,-79.2,-86.23,-83.5425,-84.37,-86.23,2.7286569498564677,2.3433333333333337
1 -> 2,2.318587000000001,2.318586999999999,2.318587,2.318587,2.318586999999999,8.881784197001252e-16,0.0,85.0,85.0,85.0,85.0,85.0,0.0,0.0,33.83000000000001,33.829999999999984,33.83,33.83,33.83000000000001,1.2809491335957507e-14,2.3684757858670005e-15,-79.2,-86.23,-83.5425,-84.37,-86.23,2.7286569498564677,2.3433333333333337
1 -> 2,2.318587000000001,2.318586999999999,2.318587,2.318587,2.318586999999999,8.881784197001252e-16,0.0,85.0,85.0,85.0,85.0,85.0,0.0,0.0,33.83000000000001,33.829999999999984,33.83,33.83,33.83000000000001,1.2809491335957507e-14,2.3684757858670005e-15,-33.43,-72.42,-54.375,-55.825,-72.42,14.624535035343861,12.996666666666668
1 -> 2,2.318587000000001,2.318586999999999,2.318587,2.318587,2.318586999999999,8.881784197001252e-16,0.0,85.0,85.0,85.0,85.0,85.0,0.0,0.0,33.83000000000001,33.829999999999984,33.83,33.83,33.83000000000001,1.2809491335957507e-14,2.3684757858670005e-15,-33.43,-72.42,-54.375,-55.825,-72.42,14.624535035343861,12.996666666666668
1 -> 2,2.318587000000001,2.318586999999999,2.318587,2.318587,2.318586999999999,8.881784197001252e-16,0.0,85.0,85.0,85.0,85.0,85.0,0.0,0.0,33.83000000000001,33.829999999999984,33.83,33.83,33.83000000000001,1.2809491335957507e-14,2.3684757858670005e-15,30.22,-16.1,8.1725,9.285,-16.1,17.353704755757487,15.44
1 -> 2,2.318587000000001,2.318586999999999,2.318587,2.318587,2.318586999999999,8.881784197001252e-16,0.0,85.0,85.0,85.0,85.0,85.0,0.0,0.0,33.83000000000001,33.829999999999984,33.83,33.83,33.83000000000001,1.2809491335957507e-14,2.3684757858670005e-15,30.22,-16.1,8.1725,9.285,-16.1,17.353704755757487,15.44
1 -> 2,2.318587000000001,2.318586999999999,2.318587,2.318587,2.318586999999999,8.881784197001252e-16,0.0,85.0,85.0,85.0,85.0,85.0,0.0,0.0,33.83000000000001,33.829999999999984,33.83,33.83,33.83000000000001,1.2809491335957507e-14,2.3684757858670005e-15,44.7,39.22,42.6175,43.275,39.22,2.093183878688159,1.1433333333333333
1 -> 2,2.318587000000001,2.318586999999999,2.318587,2.318587,2.318586999999999,8.881784197001252e-16,0.0,85.0,85.0,85.0,85.0,85.0,0.0,0.0,33.83000000000001,33.829999999999984,33.83,33.83,33.83000000000001,1.2809491335957507e-14,2.3684757858670005e-15,44.7,39.22,42.6175,43.275,39.22,2.093183878688159,1.1433333333333333
1 -> 2,2.326271000000001,2.3262709999999993,2.326271,2.326271,2.3262709999999993,8.881784197001252e-16,0.0,78.8,78.8,78.8,78.8,78.8,0.0,0.0,33.87000000000001,33.86999999999998,33.870000000000005,33.870000000000005,33.87000000000001,1.3759600911837627e-14,2.3684757858670005e-15,39.0,27.94,33.222500000000004,32.975,27.94,4.145517910949125,-3.686666666666666
1 -> 2,2.326271000000001,2.3262709999999993,2.326271,2.326271,2.3262709999999993,8.881784197001252e-16,0.0,78.8,78.8,78.8,78.8,78.8,0.0,0.0,33.87000000000001,33.86999999999998,33.870000000000005,33.870000000000005,33.87000000000001,1.3759600911837627e-14,2.3684757858670005e-15,39.0,27.94,33.222500000000004,32.975,27.94,4.145517910949125,-3.686666666666666
1 -> 2,2.326271000000001,2.3262709999999993,2.326271,2.326271,2.3262709999999993,8.881784197001252e-16,0.0,78.8,78.8,78.8,78.8,78.8,0.0,0.0,33.87000000000001,33.86999999999998,33.870000000000005,33.870000000000005,33.87000000000001,1.3759600911837627e-14,2.3684757858670005e-15,26.37,24.72,25.442500000000003,25.340000000000003,24.72,0.6625849002203421,0.20333333333333314
1 -> 2,2.326271000000001,2.3262709999999993,2.326271,2.326271,2.3262709999999993,8.881784197001252e-16,0.0,78.8,78.8,78.8,78.8,78.8,0.0,0.0,33.87000000000001,33.86999999999998,33.870000000000005,33.870000000000005,33.87000000000001,1.3759600911837627e-14,2.3684757858670005e-15,26.37,24.72,25.442500000000003,25.340000000000003,24.72,0.6625849002203421,0.20333333333333314
1 -> 2,2.326271000000001,2.3262709999999993,2.326271,2.326271,2.3262709999999993,8.881784197001252e-16,0.0,78.8,78.8,78.8,78.8,78.8,0.0,0.0,33.87000000000001,33.86999999999998,33.870000000000005,33.870000000000005,33.87000000000001,1.3759600911837627e-14,2.3684757858670005e-15,37.46,28.85,33.2875,33.42,28.85,3.2309857242024447,2.8699999999999997
1 -> 2,2.326271000000001,2.3262709999999993,2.326271,2.326271,2.3262709999999993,8.881784197001252e-16,0.0,78.8,78.8,78.8,78.8,78.8,0.0,0.0,33.87000000000001,33.86999999999998,33.870000000000005,33.870000000000005,33.87000000000001,1.3759600911837627e-14,2.3684757858670005e-15,37.46,28.85,33.2875,33.42,28.85,3.2309857242024447,2.8699999999999997
1 -> 2,2.326271000000001,2.3262709999999993,2.326271,2.326271,2.3262709999999993,8.881784197001252e-16,0.0,78.8,78.8,78.8,78.8,78.8,0.0,0.0,33.87000000000001,33.86999999999998,33.870000000000005,33.870000000000005,33.87000000000001,1.3759600911837627e-14,2.3684757858670005e-15,40.84,39.18,40.19,40.370000000000005,39.18,0.6350590523722983,0.5533333333333346
1 -> 2,2.326271000000001,2.3262709999999993,2.326271,2.326271,2.3262709999999993,8.881784197001252e-16,0.0,78.8,78.8,78.8,78.8,78.8,0.0,0.0,33.87000000000001,33.86999999999998,33.870000000000005,33.870000000000005,33.87000000000001,1.3759600911837627e-14,2.3684757858670005e-15,40.84,39.18,40.19,40.370000000000005,39.18,0.6350590523722983,0.5533333333333346
1 -> 2,2.323710000000001,2.3237099999999997,2.3237100000000006,2.323710000000001,2.323710000000001,5.438959822042073e-16,2.9605947323337506e-16,78.8,78.8,78.8,78.8,78.8,0.0,0.0,33.87000000000001,33.86999999999998,33.870000000000005,33.870000000000005,33.87000000000001,1.3759600911837627e-14,2.3684757858670005e-15,40.94,36.96,39.52,40.09,36.96,1.5707959765672928,-1.3266666666666656
1 -> 2,2.323710000000001,2.3237099999999997,2.3237100000000006,2.323710000000001,2.323710000000001,5.438959822042073e-16,2.9605947323337506e-16,78.8,78.8,78.8,78.8,78.8,0.0,0.0,33.87000000000001,33.86999999999998,33.870000000000005,33.870000000000005,33.87000000000001,1.3759600911837627e-14,2.3684757858670005e-15,40.94,36.96,39.52,40.09,36.96,1.5707959765672928,-1.3266666666666656
1 -> 2,2.323710000000001,2.3237099999999997,2.3237100000000006,2.323710000000001,2.323710000000001,5.438959822042073e-16,2.9605947323337506e-16,78.8,78.8,78.8,78.8,78.8,0.0,0.0,33.87000000000001,33.86999999999998,33.870000000000005,33.870000000000005,33.87000000000001,1.3759600911837627e-14,2.3684757858670005e-15,32.73,14.11,23.599999999999998,23.78,14.11,6.975077060506213,-6.206666666666666
1 -> 2,2.323710000000001,2.3237099999999997,2.3237100000000006,2.323710000000001,2.323710000000001,5.438959822042073e-16,2.9605947323337506e-16,78.8,78.8,78.8,78.8,78.8,0.0,0.0,33.87000000000001,33.86999999999998,33.870000000000005,33.870000000000005,33.87000000000001,1.3759600911837627e-14,2.3684757858670005e-15,32.73,14.11,23.599999999999998,23.78,14.11,6.975077060506213,-6.206666666666666
1 -> 2,2.323710000000001,2.3237099999999997,2.3237100000000006,2.323710000000001,2.323710000000001,5.438959822042073e-16,2.9605947323337506e-16,78.8,78.8,78.8,78.8,78.8,0.0,0.0,33.87000000000001,33.86999999999998,33.870000000000005,33.870000000000005,33.87000000000001,1.3759600911837627e-14,2.3684757858670005e-15,8.56,-0.59,3.4125,2.8400000000000003,-0.59,3.447936883123008,-3.0500000000000003
1 -> 2,2.323710000000001,2.3237099999999997,2.3237100000000006,2.323710000000001,2.323710000000001,5.438959822042073e-16,2.9605947323337506e-16,78.8,78.8,78.8,78.8,78.8,0.0,0.0,33.87000000000001,33.86999999999998,33.870000000000005,33.870000000000005,33.87000000000001,1.3759600911837627e-14,2.3684757858670005e-15,8.56,-0.59,3.4125,2.8400000000000003,-0.59,3.447936883123008,-3.0500000000000003
1 -> 2,2.323710000000001,2.3237099999999997,2.3237100000000006,2.323710000000001,2.323710000000001,5.438959822042073e-16,2.9605947323337506e-16,78.8,78.8,78.8,78.8,78.8,0.0,0.0,33.87000000000001,33.86999999999998,33.870000000000005,33.870000000000005,33.87000000000001,1.3759600911837627e-14,2.3684757858670005e-15,-1.94,-4.78,-3.3975,-3.435,-4.78,1.0550444303440498,-0.9466666666666668
1 -> 2,2.323710000000001,2.3237099999999997,2.3237100000000006,2.323710000000001,2.323710000000001,5.438959822042073e-16,2.9605947323337506e-16,78.8,78.8,78.8,78.8,78.8,0.0,0.0,33.87000000000001,33.86999999999998,33.870000000000005,33.870000000000005,33.87000000000001,1.3759600911837627e-14,2.3684757858670005e-15,-1.94,-4.78,-3.3975,-3.435,-4.78,1.0550444303440498,-0.9466666666666668
1 -> 2,2.319868000000001,2.3198679999999987,2.319868,2.319868,2.319868000000001,1.0175362097255202e-15,1.4802973661668753e-16,78.8,78.8,78.8,78.8,78.8,0.0,0.0,33.87000000000001,33.86999999999998,33.870000000000005,33.870000000000005,33.87000000000001,1.3759600911837627e-14,2.3684757858670005e-15,-5.75,-10.02,-7.745,-7.605,-10.02,1.5982255785714354,-1.4233333333333331
1 -> 2,2.319868000000001,2.3198679999999987,2.319868,2.319868,2.319868000000001,1.0175362097255202e-15,1.4802973661668753e-16,78.8,78.8,78.8,78.8,78.8,0.0,0.0,33.87000000000001,33.86999999999998,33.870000000000005,33.870000000000005,33.87000000000001,1.3759600911837627e-14,2.3684757858670005e-15,-5.75,-10.02,-7.745,-7.605,-10.02,1.5982255785714354,-1.4233333333333331
1 -> 2,2.319868000000001,2.3198679999999987,2.319868,2.319868,2.319868000000001,1.0175362097255202e-15,1.4802973661668753e-16,78.8,78.8,78.8,78.8,78.8,0.0,0.0,33.87000000000001,33.86999999999998,33.870000000000005,33.870000000000005,33.87000000000001,1.3759600911837627e-14,2.3684757858670005e-15,-11.89,-16.19,-14.247499999999999,-14.455,-16.19,1.6245980272054996,-1.4333333333333336
1 -> 2,2.319868000000001,2.3198679999999987,2.319868,2.319868,2.319868000000001,1.0175362097255202e-15,1.4802973661668753e-16,78.8,78.8,78.8,78.8,78.8,0.0,0.0,33.87000000000001,33.86999999999998,33.870000000000005,33.870000000000005,33.87000000000001,1.3759600911837627e-14,2.3684757858670005e-15,-11.89,-16.19,-14.247499999999999,-14.455,-16.19,1.6245980272054996,-1.4333333333333336
1 -> 2,2.319868000000001,2.3198679999999987,2.319868,2.319868,2.319868000000001,1.0175362097255202e-15,1.4802973661668753e-16,78.8,78.8,78.8,78.8,78.8,0.0,0.0,33.87000000000001,33.86999999999998,33.870000000000005,33.870000000000005,33.87000000000001,1.3759600911837627e-14,2.3684757858670005e-15,-11.77,-16.45,-14.592499999999998,-15.075,-16.45,1.8085681491168641,1.5599999999999998
1 -> 2,2.319868000000001,2.3198679999999987,2.319868,2.319868,2.319868000000001,1.0175362097255202e-15,1.4802973661668753e-16,78.8,78.8,78.8,78.8,78.8,0.0,0.0,33.87000000000001,33.86999999999998,33.870000000000005,33.870000000000005,33.87000000000001,1.3759600911837627e-14,2.3684757858670005e-15,-11.77,-16.45,-14.592499999999998,-15.075,-16.45,1.8085681491168641,1.5599999999999998
1 -> 2,2.319868000000001,2.3198679999999987,2.319868,2.319868,2.319868000000001,1.0175362097255202e-15,1.4802973661668753e-16,78.8,78.8,78.8,78.8,78.8,0.0,0.0,33.87000000000001,33.86999999999998,33.870000000000005,33.870000000000005,33.87000000000001,1.3759600911837627e-14,2.3684757858670005e-15,2.6,-8.42,-2.7575000000000003,-2.605,-8.42,4.13224137121732,3.6733333333333333
1 -> 2,2.319868000000001,2.3198679999999987,2.319868,2.319868,2.319868000000001,1.0175362097255202e-15,1.4802973661668753e-16,78.8,78.8,78.8,78.8,78.8,0.0,0.0,33.87000000000001,33.86999999999998,33.870000000000005,33.870000000000005,33.87000000000001,1.3759600911837627e-14,2.3684757858670005e-15,2.6,-8.42,-2.7575000000000003,-2.605,-8.42,4.13224137121732,3.6733333333333333
1 -> 2,2.3121840000000007,2.312183999999999,2.3121840000000002,2.3121840000000002,2.3121840000000007,7.691850745534255e-16,2.9605947323337506e-16,78.8,78.8,78.8,78.8,78.8,0.0,0.0,33.87000000000001,33.86999999999998,33.870000000000005,33.870000000000005,33.87000000000001,1.3759600911837627e-14,2.3684757858670005e-15,5.5,3.28,4.6075,4.825,3.28,0.8161916135320187,-0.49000000000000005
1 -> 2,2.3121840000000007,2.312183999999999,2.3121840000000002,2.3121840000000002,2.3121840000000007,7.691850745534255e-16,2.9605947323337506e-16,78.8,78.8,78.8,78.8,78.8,0.0,0.0,33.87000000000001,33.86999999999998,33.870000000000005,33.870000000000005,33.87000000000001,1.3759600911837627e-14,2.3684757858670005e-15,5.5,3.28,4.6075,4.825,3.28,0.8161916135320187,-0.49000000000000005
1 -> 2,2.3121840000000007,2.312183999999999,2.3121840000000002,2.3121840000000002,2.3121840000000007,7.691850745534255e-16,2.9605947323337506e-16,78.8,78.8,78.8,78.8,78.8,0.0,0.0,33.87000000000001,33.86999999999998,33.870000000000005,33.870000000000005,33.87000000000001,1.3759600911837627e-14,2.3684757858670005e-15,1.12,-4.76,-1.9674999999999998,-2.115,-4.76,2.1996746918578665,-1.9600000000000002
1 -> 2,2.3121840000000007,2.312183999999999,2.3121840000000002,2.3121840000000002,2.3121840000000007,7.691850745534255e-16,2.9605947323337506e-16,78.8,78.8,78.8,78.8,78.8,0.0,0.0,33.87000000000001,33.86999999999998,33.870000000000005,33.870000000000005,33.87000000000001,1.3759600911837627e-14,2.3684757858670005e-15,1.12,-4.76,-1.9674999999999998,-2.115,-4.76,2.1996746918578665,-1.9600000000000002
1 -> 2,2.3121840000000007,2.312183999999999,2.3121840000000002,2.3121840000000002,2.3121840000000007,7.691850745534255e-16,2.9605947323337506e-16,78.8,78.8,78.8,78.8,78.8,0.0,0.0,33.87000000000001,33.86999999999998,33.870000000000005,33.870000000000005,33.87000000000001,1.3759600911837627e-14,2.3684757858670005e-15,-6.08,-8.55,-7.435,-7.555,-8.55,0.9290452088031025,-0.8233333333333336
1 -> 2,2.3121840000000007,2.312183999999999,2.3121840000000002,2.3121840000000002,2.3121840000000007,7.691850745534255e-16,2.9605947323337506e-16,78.8,78.8,78.8,78.8,78.8,0.0,0.0,33.87000000000001,33.86999999999998,33.870000000000005,33.870000000000005,33.87000000000001,1.3759600911837627e-14,2.3684757858670005e-15,-6.08,-8.55,-7.435,-7.555,-8.55,0.9290452088031025,-0.8233333333333336
1 -> 2,2.3121840000000007,2.312183999999999,2.3121840000000002,2.3121840000000002,2.3121840000000007,7.691850745534255e-16,2.9605947323337506e-16,78.8,78.8,78.8,78.8,78.8,0.0,0.0,33.87000000000001,33.86999999999998,33.870000000000005,33.870000000000005,33.87000000000001,1.3759600911837627e-14,2.3684757858670005e-15,-8.87,-9.09,-8.9775,-8.975000000000001,-9.09,0.07790218225441463,-0.07333333333333354
1 -> 2,2.3121840000000007,2.312183999999999,2.3121840000000002,2.3121840000000002,2.3121840000000007,7.691850745534255e-16,2.9605947323337506e-16,78.8,78.8,78.8,78.8,78.8,0.0,0.0,33.87000000000001,33.86999999999998,33.870000000000005,33.870000000000005,33.87000000000001,1.3759600911837627e-14,2.3684757858670005e-15,-8.87,-9.09,-8.9775,-8.975000000000001,-9.09,0.07790218225441463,-0.07333333333333354
1 -> 2,2.3275520000000007,2.3275519999999994,2.327552,2.327552,2.3275519999999994,7.021666937153402e-16,0.0,76.5,76.5,76.5,76.5,76.5,0.0,0.0,33.87000000000001,33.86999999999998,33.870000000000005,33.870000000000005,33.87000000000001,1.3759600911837627e-14,2.3684757858670005e-15,-9.5,-12.83,-11.0375,-10.91,-12.83,1.2555551560962983,-1.11
1 -> 2,2.3275520000000007,2.3275519999999994,2.327552,2.327552,2.3275519999999994,7.021666937153402e-16,0.0,76.5,76.5,76.5,76.5,76.5,0.0,0.0,33.87000000000001,33.86999999999998,33.870000000000005,33.870000000000005,33.87000000000001,1.3759600911837627e-14,2.3684757858670005e-15,-9.5,-12.83,-11.0375,-10.91,-12.83,1.2555551560962983,-1.11
1 -> 2,2.3275520000000007,2.3275519999999994,2.327552,2.327552,2.3275519999999994,7.021666937153402e-16,0.0,76.5,76.5,76.5,76.5,76.5,0.0,0.0,33.87000000000001,33.86999999999998,33.870000000000005,33.870000000000005,33.87000000000001,1.3759600911837627e-14,2.3684757858670005e-15,-12.03,-14.33,-13.505,-13.83,-14.33,0.8775391729148053,0.6266666666666669
1 -> 2,2.3275520000000007,2.3275519999999994,2.327552,2.327552,2.3275519999999994,7.021666937153402e-16,0.0,76.5,76.5,76.5,76.5,76.5,0.0,0.0,33.87000000000001,33.86999999999998,33.870000000000005,33.870000000000005,33.87000000000001,1.3759600911837627e-14,2.3684757858670005e-15,-12.03,-14.33,-13.505,-13.83,-14.33,0.8775391729148053,0.6266666666666669
1 -> 2,2.3275520000000007,2.3275519999999994,2.327552,2.327552,2.3275519999999994,7.021666937153402e-16,0.0,76.5,76.5,76.5,76.5,76.5,0.0,0.0,33.87000000000001,33.86999999999998,33.870000000000005,33.870000000000005,33.87000000000001,1.3759600911837627e-14,2.3684757858670005e-15,2.3,-9.26,-3.5975,-3.715,-9.26,4.322975682328089,3.853333333333333
1 -> 2,2.3275520000000007,2.3275519999999994,2.327552,2.327552,2.3275519999999994,7.021666937153402e-16,0.0,76.5,76.5,76.5,76.5,76.5,0.0,0.0,33.87000000000001,33.86999999999998,33.870000000000005,33.870000000000005,33.87000000000001,1.3759600911837627e-14,2.3684757858670005e-15,2.3,-9.26,-3.5975,-3.715,-9.26,4.322975682328089,3.853333333333333
1 -> 2,2.3275520000000007,2.3275519999999994,2.327552,2.327552,2.3275519999999994,7.021666937153402e-16,0.0,76.5,76.5,76.5,76.5,76.5,0.0,0.0,33.87000000000001,33.86999999999998,33.870000000000005,33.870000000000005,33.87000000000001,1.3759600911837627e-14,2.3684757858670005e-15,15.15,6.15,10.91,11.17,6.15,3.368649581063605,3.0
1 -> 2,2.3275520000000007,2.3275519999999994,2.327552,2.327552,2.3275519999999994,7.021666937153402e-16,0.0,76.5,76.5,76.5,76.5,76.5,0.0,0.0,33.87000000000001,33.86999999999998,33.870000000000005,33.870000000000005,33.87000000000001,1.3759600911837627e-14,2.3684757858670005e-15,15.15,6.15,10.91,11.17,6.15,3.368649581063605,3.0
1 -> 2,2.3416390000000007,2.341638999999999,2.341639,2.3416390000000002,2.3416390000000007,7.691850745534255e-16,2.9605947323337506e-16,76.5,76.5,76.5,76.5,76.5,0.0,0.0,33.87000000000001,33.86999999999998,33.870000000000005,33.870000000000005,33.87000000000001,1.3759600911837627e-14,2.3684757858670005e-15,17.72,16.86,17.2975,17.305,16.86,0.4129391601676931,0.016666666666666902
1 -> 2,2.3416390000000007,2.341638999999999,2.341639,2.3416390000000002,2.3416390000000007,7.691850745534255e-16,2.9605947323337506e-16,76.5,76.5,76.5,76.5,76.5,0.0,0.0,33.87000000000001,33.86999999999998,33.870000000000005,33.870000000000005,33.87000000000001,1.3759600911837627e-14,2.3684757858670005e-15,17.72,16.86,17.2975,17.305,16.86,0.4129391601676931,0.016666666666666902
1 -> 2,2.3416390000000007,2.341638999999999,2.341639,2.3416390000000002,2.3416390000000007,7.691850745534255e-16,2.9605947323337506e-16,76.5,76.5,76.5,76.5,76.5,0.0,0.0,33.87000000000001,33.86999999999998,33.870000000000005,33.870000000000005,33.87000000000001,1.3759600911837627e-14,2.3684757858670005e-15,15.54,9.87,12.7625,12.82,9.87,2.11952087746264,-1.89
1 -> 2,2.3416390000000007,2.341638999999999,2.341639,2.3416390000000002,2.3416390000000007,7.691850745534255e-16,2.9605947323337506e-16,76.5,76.5,76.5,76.5,76.5,0.0,0.0,33.87000000000001,33.86999999999998,33.870000000000005,33.870000000000005,33.87000000000001,1.3759600911837627e-14,2.3684757858670005e-15,15.54,9.87,12.7625,12.82,9.87,2.11952087746264,-1.89
1 -> 2,2.3416390000000007,2.341638999999999,2.341639,2.3416390000000002,2.3416390000000007,7.691850745534255e-16,2.9605947323337506e-16,76.5,76.5,76.5,76.5,76.5,0.0,0.0,33.87000000000001,33.86999999999998,33.870000000000005,33.870000000000005,33.87000000000001,1.3759600911837627e-14,2.3684757858670005e-15,8.0,5.07,6.242500000000001,5.95,5.07,1.1352174901753407,-0.9766666666666666
1 -> 2,2.3416390000000007,2.341638999999999,2.341639,2.3416390000000002,2.3416390000000007,7.691850745534255e-16,2.9605947323337506e-16,76.5,76.5,76.5,76.5,76.5,0.0,0.0,33.87000000000001,33.86999999999998,33.870000000000005,33.870000000000005,33.87000000000001,1.3759600911837627e-14,2.3684757858670005e-15,8.0,5.07,6.242500000000001,5.95,5.07,1.1352174901753407,-0.9766666666666666
1 -> 2,2.3416390000000007,2.341638999999999,2.341639,2.3416390000000002,2.3416390000000007,7.691850745534255e-16,2.9605947323337506e-16,76.5,76.5,76.5,76.5,76.5,0.0,0.0,33.87000000000001,33.86999999999998,33.870000000000005,33.870000000000005,33.87000000000001,1.3759600911837627e-14,2.3684757858670005e-15,6.13,5.29,5.775,5.84,5.29,0.30606371885605776,0.19999999999999987
1 -> 2,2.3416390000000007,2.341638999999999,2.341639,2.3416390000000002,2.3416390000000007,7.691850745534255e-16,2.9605947323337506e-16,76.5,76.5,76.5,76.5,76.5,0.0,0.0,33.87000000000001,33.86999999999998,33.870000000000005,33.870000000000005,33.87000000000001,1.3759600911837627e-14,2.3684757858670005e-15,6.13,5.29,5.775,5.84,5.29,0.30606371885605776,0.19999999999999987
1 -> 2,2.332674000000001,2.3326739999999986,2.332674,2.3326740000000004,2.332674000000001,9.155133597044475e-16,4.440892098500626e-16,76.5,76.5,76.5,76.5,76.5,0.0,0.0,33.87000000000001,33.86999999999998,33.870000000000005,33.870000000000005,33.87000000000001,1.3759600911837627e-14,2.3684757858670005e-15,4.85,-0.7,2.0975,2.12,-0.7,2.0882693193168356,-1.8499999999999996
1 -> 2,2.332674000000001,2.3326739999999986,2.332674,2.3326740000000004,2.332674000000001,9.155133597044475e-16,4.440892098500626e-16,76.5,76.5,76.5,76.5,76.5,0.0,0.0,33.87000000000001,33.86999999999998,33.870000000000005,33.870000000000005,33.87000000000001,1.3759600911837627e-14,2.3684757858670005e-15,4.85,-0.7,2.0975,2.12,-0.7,2.0882693193168356,-1.8499999999999996
1 -> 2,2.332674000000001,2.3326739999999986,2.332674,2.3326740000000004,2.332674000000001,9.155133597044475e-16,4.440892098500626e-16,76.5,76.5,76.5,76.5,76.5,0.0,0.0,33.87000000000001,33.86999999999998,33.870000000000005,33.870000000000005,33.87000000000001,1.3759600911837627e-14,2.3684757858670005e-15,0.23,-2.05,-1.2449999999999999,-1.58,-2.05,0.8906598677385211,0.6866666666666666
1 -> 2,2.332674000000001,2.3326739999999986,2.332674,2.3326740000000004,2.332674000000001,9.155133597044475e-16,4.440892098500626e-16,76.5,76.5,76.5,76.5,76.5,0.0,0.0,33.87000000000001,33.86999999999998,33.870000000000005,33.870000000000005,33.87000000000001,1.3759600911837627e-14,2.3684757858670005e-15,0.23,-2.05,-1.2449999999999999,-1.58,-2.05,0.8906598677385211,0.6866666666666666
1 -> 2,2.332674000000001,2.3326739999999986,2.332674,2.3326740000000004,2.332674000000001,9.155133597044475e-16,4.440892098500626e-16,76.5,76.5,76.5,76.5,76.5,0.0,0.0,33.87000000000001,33.86999999999998,33.870000000000005,33.870000000000005,33.87000000000001,1.3759600911837627e-14,2.3684757858670005e-15,11.46,2.46,6.85,6.74,2.46,3.364951708420197,3.0
1 -> 2,2.332674000000001,2.3326739999999986,2.332674,2.3326740000000004,2.332674000000001,9.155133597044475e-16,4.440892098500626e-16,76.5,76.5,76.5,76.5,76.5,0.0,0.0,33.87000000000001,33.86999999999998,33.870000000000005,33.870000000000005,33.87000000000001,1.3759600911837627e-14,2.3684757858670005e-15,11.46,2.46,6.85,6.74,2.46,3.364951708420197,3.0
1 -> 2,2.332674000000001,2.3326739999999986,2.332674,2.3326740000000004,2.332674000000001,9.155133597044475e-16,4.440892098500626e-16,76.5,76.5,76.5,76.5,76.5,0.0,0.0,33.87000000000001,33.86999999999998,33.870000000000005,33.870000000000005,33.87000000000001,1.3759600911837627e-14,2.3684757858670005e-15,18.77,14.42,17.07,17.545,14.42,1.6936499047914237,1.45
1 -> 2,2.332674000000001,2.3326739999999986,2.332674,2.3326740000000004,2.332674000000001,9.155133597044475e-16,4.440892098500626e-16,76.5,76.5,76.5,76.5,76.5,0.0,0.0,33.87000000000001,33.86999999999998,33.870000000000005,33.870000000000005,33.87000000000001,1.3759600911837627e-14,2.3684757858670005e-15,18.77,14.42,17.07,17.545,14.42,1.6936499047914237,1.45
1 -> 2,2.322429000000001,2.3224289999999983,2.3224289999999996,2.3224289999999996,2.322429000000001,1.2362920382602608e-15,-1.4802973661668753e-16,76.5,76.5,76.5,76.5,76.5,0.0,0.0,33.87000000000001,33.86999999999998,33.870000000000005,33.870000000000005,33.87000000000001,1.3759600911837627e-14,2.3684757858670005e-15,18.31,13.72,16.177500000000002,16.34,13.72,1.7262441165721603,-1.5299999999999994
1 -> 2,2.322429000000001,2.3224289999999983,2.3224289999999996,2.3224289999999996,2.322429000000001,1.2362920382602608e-15,-1.4802973661668753e-16,76.5,76.5,76.5,76.5,76.5,0.0,0.0,33.87000000000001,33.86999999999998,33.870000000000005,33.870000000000005,33.87000000000001,1.3759600911837627e-14,2.3684757858670005e-15,18.31,13.72,16.177500000000002,16.34,13.72,1.7262441165721603,-1.5299999999999994
1 -> 2,2.322429000000001,2.3224289999999983,2.3224289999999996,2.3224289999999996,2.322429000000001,1.2362920382602608e-15,-1.4802973661668753e-16,76.5,76.5,76.5,76.5,76.5,0.0,0.0,33.87000000000001,33.86999999999998,33.870000000000005,33.870000000000005,33.87000000000001,1.3759600911837627e-14,2.3684757858670005e-15,11.81,5.42,8.67,8.725,5.42,2.3820474386544026,-2.1300000000000003
1 -> 2,2.322429000000001,2.3224289999999983,2.3224289999999996,2.3224289999999996,2.322429000000001,1.2362920382602608e-15,-1.4802973661668753e-16,76.5,76.5,76.5,76.5,76.5,0.0,0.0,33.87000000000001,33.86999999999998,33.870000000000005,33.870000000000005,33.87000000000001,1.3759600911837627e-14,2.3684757858670005e-15,11.81,5.42,8.67,8.725,5.42,2.3820474386544026,-2.1300000000000003
1 -> 2,2.322429000000001,2.3224289999999983,2.3224289999999996,2.3224289999999996,2.322429000000001,1.2362920382602608e-15,-1.4802973661668753e-16,76.5,76.5,76.5,76.5,76.5,0.0,0.0,33.87000000000001,33.86999999999998,33.870000000000005,33.870000000000005,33.87000000000001,1.3759600911837627e-14,2.3684757858670005e-15,3.14,-2.86,0.032500000000000084,-0.07500000000000001,-2.86,2.2397697984391165,-2.0
1 -> 2,2.322429000000001,2.3224289999999983,2.3224289999999996,2.3224289999999996,2.322429000000001,1.2362920382602608e-15,-1.4802973661668753e-16,76.5,76.5,76.5,76.5,76.5,0.0,0.0,33.87000000000001,33.86999999999998,33.870000000000005,33.870000000000005,33.87000000000001,1.3759600911837627e-14,2.3684757858670005e-15,3.14,-2.86,0.032500000000000084,-0.07500000000000001,-2.86,2.2397697984391165,-2.0
1 -> 2,2.322429000000001,2.3224289999999983,2.3224289999999996,2.3224289999999996,2.322429000000001,1.2362920382602608e-15,-1.4802973661668753e-16,76.5,76.5,76.5,76.5,76.5,0.0,0.0,33.87000000000001,33.86999999999998,33.870000000000005,33.870000000000005,33.87000000000001,1.3759600911837627e-14,2.3684757858670005e-15,-4.42,-9.18,-6.725,-6.65,-9.18,1.770388375470196,-1.5866666666666667
1 -> 2,2.322429000000001,2.3224289999999983,2.3224289999999996,2.3224289999999996,2.322429000000001,1.2362920382602608e-15,-1.4802973661668753e-16,76.5,76.5,76.5,76.5,76.5,0.0,0.0,33.87000000000001,33.86999999999998,33.870000000000005,33.870000000000005,33.87000000000001,1.3759600911837627e-14,2.3684757858670005e-15,-4.42,-9.18,-6.725,-6.65,-9.18,1.770388375470196,-1.5866666666666667
1 -> 2,2.321148000000001,2.3211479999999995,2.3211480000000004,2.321148000000001,2.321148000000001,5.438959822042073e-16,2.9605947323337506e-16,74.71,74.71,74.71,74.71,74.71,0.0,0.0,33.87000000000001,33.86999999999998,33.870000000000005,33.870000000000005,33.87000000000001,1.3759600911837627e-14,2.3684757858670005e-15,-11.22,-17.99,-14.622499999999999,-14.64,-17.99,2.5302606091072906,-2.256666666666666
1 -> 2,2.321148000000001,2.3211479999999995,2.3211480000000004,2.321148000000001,2.321148000000001,5.438959822042073e-16,2.9605947323337506e-16,74.71,74.71,74.71,74.71,74.71,0.0,0.0,33.87000000000001,33.86999999999998,33.870000000000005,33.870000000000005,33.87000000000001,1.3759600911837627e-14,2.3684757858670005e-15,-11.22,-17.99,-14.622499999999999,-14.64,-17.99,2.5302606091072906,-2.256666666666666
1 -> 2,2.321148000000001,2.3211479999999995,2.3211480000000004,2.321148000000001,2.321148000000001,5.438959822042073e-16,2.9605947323337506e-16,74.71,74.71,74.71,74.71,74.71,0.0,0.0,33.87000000000001,33.86999999999998,33.870000000000005,33.870000000000005,33.87000000000001,1.3759600911837627e-14,2.3684757858670005e-15,-19.83,-21.61,-20.904999999999998,-21.09,-21.61,0.6565630205852296,-0.40666666666666745
1 -> 2,2.321148000000001,2.3211479999999995,2.3211480000000004,2.321148000000001,2.321148000000001,5.438959822042073e-16,2.9605947323337506e-16,74.71,74.71,74.71,74.71,74.71,0.0,0.0,33.87000000000001,33.86999999999998,33.870000000000005,33.870000000000005,33.87000000000001,1.3759600911837627e-14,2.3684757858670005e-15,-19.83,-21.61,-20.904999999999998,-21.09,-21.61,0.6565630205852296,-0.40666666666666745
1 -> 2,2.321148000000001,2.3211479999999995,2.3211480000000004,2.321148000000001,2.321148000000001,5.438959822042073e-16,2.9605947323337506e-16,74.71,74.71,74.71,74.71,74.71,0.0,0.0,33.87000000000001,33.86999999999998,33.870000000000005,33.870000000000005,33.87000000000001,1.3759600911837627e-14,2.3684757858670005e-15,-8.82,-19.32,-14.365,-14.66,-19.32,3.942426283394529,3.5
1 -> 2,2.321148000000001,2.3211479999999995,2.3211480000000004,2.321148000000001,2.321148000000001,5.438959822042073e-16,2.9605947323337506e-16,74.71,74.71,74.71,74.71,74.71,0.0,0.0,33.87000000000001,33.86999999999998,33.870000000000005,33.870000000000005,33.87000000000001,1.3759600911837627e-14,2.3684757858670005e-15,-8.82,-19.32,-14.365,-14.66,-19.32,3.942426283394529,3.5
1 -> 2,2.321148000000001,2.3211479999999995,2.3211480000000004,2.321148000000001,2.321148000000001,5.438959822042073e-16,2.9605947323337506e-16,74.71,74.71,74.71,74.71,74.71,0.0,0.0,33.87000000000001,33.86999999999998,33.870000000000005,33.870000000000005,33.87000000000001,1.3759600911837627e-14,2.3684757858670005e-15,3.53,-4.91,-0.35499999999999987,-0.020000000000000018,-4.91,3.1661688205147875,2.813333333333334
1 -> 2,2.321148000000001,2.3211479999999995,2.3211480000000004,2.321148000000001,2.321148000000001,5.438959822042073e-16,2.9605947323337506e-16,74.71,74.71,74.71,74.71,74.71,0.0,0.0,33.87000000000001,33.86999999999998,33.870000000000005,33.870000000000005,33.87000000000001,1.3759600911837627e-14,2.3684757858670005e-15,3.53,-4.91,-0.35499999999999987,-0.020000000000000018,-4.91,3.1661688205147875,2.813333333333334
1 -> 2,2.321148000000001,2.3211479999999995,2.3211480000000004,2.321148000000001,2.321148000000001,5.438959822042073e-16,2.9605947323337506e-16,74.71,74.71,74.71,74.71,74.71,0.0,0.0,33.87000000000001,33.86999999999998,33.870000000000005,33.870000000000005,33.87000000000001,1.3759600911837627e-14,2.3684757858670005e-15,5.39,3.4,4.6499999999999995,4.905,3.4,0.748364884264354,-0.5000000000000001
1 -> 2,2.321148000000001,2.3211479999999995,2.3211480000000004,2.321148000000001,2.321148000000001,5.438959822042073e-16,2.9605947323337506e-16,74.71,74.71,74.71,74.71,74.71,0.0,0.0,33.87000000000001,33.86999999999998,33.870000000000005,33.870000000000005,33.87000000000001,1.3759600911837627e-14,2.3684757858670005e-15,5.39,3.4,4.6499999999999995,4.905,3.4,0.748364884264354,-0.5000000000000001
1 -> 2,2.321148000000001,2.3211479999999995,2.3211480000000004,2.321148000000001,2.321148000000001,5.438959822042073e-16,2.9605947323337506e-16,74.71,74.71,74.71,74.71,74.71,0.0,0.0,33.87000000000001,33.86999999999998,33.870000000000005,33.870000000000005,33.87000000000001,1.3759600911837627e-14,2.3684757858670005e-15,1.04,-7.66,-3.3449999999999998,-3.38,-7.66,3.256151869922532,-2.9
1 -> 2,2.321148000000001,2.3211479999999995,2.3211480000000004,2.321148000000001,2.321148000000001,5.438959822042073e-16,2.9605947323337506e-16,74.71,74.71,74.71,74.71,74.71,0.0,0.0,33.87000000000001,33.86999999999998,33.870000000000005,33.870000000000005,33.87000000000001,1.3759600911837627e-14,2.3684757858670005e-15,1.04,-7.66,-3.3449999999999998,-3.38,-7.66,3.256151869922532,-2.9
1 -> 2,2.321148000000001,2.3211479999999995,2.3211480000000004,2.321148000000001,2.321148000000001,5.438959822042073e-16,2.9605947323337506e-16,74.71,74.71,74.71,74.71,74.71,0.0,0.0,33.87000000000001,33.86999999999998,33.870000000000005,33.870000000000005,33.87000000000001,1.3759600911837627e-14,2.3684757858670005e-15,-9.94,-14.11,-12.2025,-12.38,-14.11,1.5587073971724135,-1.39
1 -> 2,2.321148000000001,2.3211479999999995,2.3211480000000004,2.321148000000001,2.321148000000001,5.438959822042073e-16,2.9605947323337506e-16,74.71,74.71,74.71,74.71,74.71,0.0,0.0,33.87000000000001,33.86999999999998,33.870000000000005,33.870000000000005,33.87000000000001,1.3759600911837627e-14,2.3684757858670005e-15,-9.94,-14.11,-12.2025,-12.38,-14.11,1.5587073971724135,-1.39
1 -> 2,2.321148000000001,2.3211479999999995,2.3211480000000004,2.321148000000001,2.321148000000001,5.438959822042073e-16,2.9605947323337506e-16,74.71,74.71,74.71,74.71,74.71,0.0,0.0,33.87000000000001,33.86999999999998,33.870000000000005,33.870000000000005,33.87000000000001,1.3759600911837627e-14,2.3684757858670005e-15,-15.06,-18.81,-16.81,-16.685,-18.81,1.3987315682431702,-1.2499999999999993
1 -> 2,2.321148000000001,2.3211479999999995,2.3211480000000004,2.321148000000001,2.321148000000001,5.438959822042073e-16,2.9605947323337506e-16,74.71,74.71,74.71,74.71,74.71,0.0,0.0,33.87000000000001,33.86999999999998,33.870000000000005,33.870000000000005,33.87000000000001,1.3759600911837627e-14,2.3684757858670005e-15,-15.06,-18.81,-16.81,-16.685,-18.81,1.3987315682431702,-1.2499999999999993
1 -> 2,2.317307000000001,2.317307,2.3173070000000004,2.3173070000000004,2.317307000000001,3.8459253727671276e-16,-1.4802973661668753e-16,74.71,74.71,74.71,74.71,74.71,0.0,0.0,33.87000000000001,33.86999999999998,33.870000000000005,33.870000000000005,33.87000000000001,1.3759600911837627e-14,2.3684757858670005e-15,-20.6,-24.68,-22.945,-23.25,-24.68,1.5717108512700413,-1.3599999999999994
1 -> 2,2.317307000000001,2.317307,2.3173070000000004,2.3173070000000004,2.317307000000001,3.8459253727671276e-16,-1.4802973661668753e-16,74.71,74.71,74.71,74.71,74.71,0.0,0.0,33.87000000000001,33.86999999999998,33.870000000000005,33.870000000000005,33.87000000000001,1.3759600911837627e-14,2.3684757858670005e-15,-20.6,-24.68,-22.945,-23.25,-24.68,1.5717108512700413,-1.3599999999999994
1 -> 2,2.317307000000001,2.317307,2.3173070000000004,2.3173070000000004,2.317307000000001,3.8459253727671276e-16,-1.4802973661668753e-16,74.71,74.71,74.71,74.71,74.71,0.0,0.0,33.87000000000001,33.86999999999998,33.870000000000005,33.870000000000005,33.87000000000001,1.3759600911837627e-14,2.3684757858670005e-15,-12.29,-23.94,-18.814999999999998,-19.515,-23.94,4.414229830899158,3.883333333333334
1 -> 2,2.317307000000001,2.317307,2.3173070000000004,2.3173070000000004,2.317307000000001,3.8459253727671276e-16,-1.4802973661668753e-16,74.71,74.71,74.71,74.71,74.71,0.0,0.0,33.87000000000001,33.86999999999998,33.870000000000005,33.870000000000005,33.87000000000001,1.3759600911837627e-14,2.3684757858670005e-15,-12.29,-23.94,-18.814999999999998,-19.515,-23.94,4.414229830899158,3.883333333333334
1 -> 2,2.317307000000001,2.317307,2.3173070000000004,2.3173070000000004,2.317307000000001,3.8459253727671276e-16,-1.4802973661668753e-16,74.71,74.71,74.71,74.71,74.71,0.0,0.0,33.87000000000001,33.86999999999998,33.870000000000005,33.870000000000005,33.87000000000001,1.3759600911837627e-14,2.3684757858670005e-15,7.12,-6.57,0.7699999999999998,1.265,-6.57,5.140189685215907,4.5633333333333335
1 -> 2,2.317307000000001,2.317307,2.3173070000000004,2.3173070000000004,2.317307000000001,3.8459253727671276e-16,-1.4802973661668753e-16,74.71,74.71,74.71,74.71,74.71,0.0,0.0,33.87000000000001,33.86999999999998,33.870000000000005,33.870000000000005,33.87000000000001,1.3759600911837627e-14,2.3684757858670005e-15,7.12,-6.57,0.7699999999999998,1.265,-6.57,5.140189685215907,4.5633333333333335
1 -> 2,2.317307000000001,2.317307,2.3173070000000004,2.3173070000000004,2.317307000000001,3.8459253727671276e-16,-1.4802973661668753e-16,74.71,74.71,74.71,74.71,74.71,0.0,0.0,33.87000000000001,33.86999999999998,33.870000000000005,33.870000000000005,33.87000000000001,1.3759600911837627e-14,2.3684757858670005e-15,10.4,9.34,9.934999999999999,10.0,9.34,0.4656984002549294,0.09333333333333312
1 -> 2,2.317307000000001,2.317307,2.3173070000000004,2.3173070000000004,2.317307000000001,3.8459253727671276e-16,-1.4802973661668753e-16,74.71,74.71,74.71,74.71,74.71,0.0,0.0,33.87000000000001,33.86999999999998,33.870000000000005,33.870000000000005,33.87000000000001,1.3759600911837627e-14,2.3684757858670005e-15,10.4,9.34,9.934999999999999,10.0,9.34,0.4656984002549294,0.09333333333333312
1 -> 2,2.316026000000001,2.3160259999999995,2.3160260000000004,2.316026000000001,2.316026000000001,5.438959822042073e-16,-2.9605947323337506e-16,74.71,74.71,74.71,74.71,74.71,0.0,0.0,33.87000000000001,33.86999999999998,33.870000000000005,33.870000000000005,33.87000000000001,1.3759600911837627e-14,2.3684757858670005e-15,8.28,2.86,5.615,5.66,2.86,2.026456266490841,-1.8066666666666666
1 -> 2,2.316026000000001,2.3160259999999995,2.3160260000000004,2.316026000000001,2.316026000000001,5.438959822042073e-16,-2.9605947323337506e-16,74.71,74.71,74.71,74.71,74.71,0.0,0.0,33.87000000000001,33.86999999999998,33.870000000000005,33.870000000000005,33.87000000000001,1.3759600911837627e-14,2.3684757858670005e-15,8.28,2.86,5.615,5.66,2.86,2.026456266490841,-1.8066666666666666
1 -> 2,2.316026000000001,2.3160259999999995,2.3160260000000004,2.316026000000001,2.316026000000001,5.438959822042073e-16,-2.9605947323337506e-16,74.71,74.71,74.71,74.71,74.71,0.0,0.0,33.87000000000001,33.86999999999998,33.870000000000005,33.870000000000005,33.87000000000001,1.3759600911837627e-14,2.3684757858670005e-15,1.08,-3.46,-1.255,-1.3199999999999998,-3.46,1.691722494973688,-1.5133333333333334
1 -> 2,2.316026000000001,2.3160259999999995,2.3160260000000004,2.316026000000001,2.316026000000001,5.438959822042073e-16,-2.9605947323337506e-16,74.71,74.71,74.71,74.71,74.71,0.0,0.0,33.87000000000001,33.86999999999998,33.870000000000005,33.870000000000005,33.87000000000001,1.3759600911837627e-14,2.3684757858670005e-15,1.08,-3.46,-1.255,-1.3199999999999998,-3.46,1.691722494973688,-1.5133333333333334
1 -> 2,2.316026000000001,2.3160259999999995,2.3160260000000004,2.316026000000001,2.316026000000001,5.438959822042073e-16,-2.9605947323337506e-16,74.71,74.71,74.71,74.71,74.71,0.0,0.0,33.87000000000001,33.86999999999998,33.870000000000005,33.870000000000005,33.87000000000001,1.3759600911837627e-14,2.3684757858670005e-15,-4.75,-8.33,-6.5275,-6.515000000000001,-8.33,1.3294806316753922,-1.1933333333333334
1 -> 2,2.316026000000001,2.3160259999999995,2.3160260000000004,2.316026000000001,2.316026000000001,5.438959822042073e-16,-2.9605947323337506e-16,74.71,74.71,74.71,74.71,74.71,0.0,0.0,33.87000000000001,33.86999999999998,33.870000000000005,33.870000000000005,33.87000000000001,1.3759600911837627e-14,2.3684757858670005e-15,-4.75,-8.33,-6.5275,-6.515000000000001,-8.33,1.3294806316753922,-1.1933333333333334
1 -> 2,2.316026000000001,2.3160259999999995,2.3160260000000004,2.316026000000001,2.316026000000001,5.438959822042073e-16,-2.9605947323337506e-16,74.71,74.71,74.71,74.71,74.71,0.0,0.0,33.87000000000001,33.86999999999998,33.870000000000005,33.870000000000005,33.87000000000001,1.3759600911837627e-14,2.3684757858670005e-15,-9.81,-16.49,-13.0,-12.85,-16.49,2.502308933764973,-2.226666666666666
1 -> 2,2.316026000000001,2.3160259999999995,2.3160260000000004,2.316026000000001,2.316026000000001,5.438959822042073e-16,-2.9605947323337506e-16,74.71,74.71,74.71,74.71,74.71,0.0,0.0,33.87000000000001,33.86999999999998,33.870000000000005,33.870000000000005,33.87000000000001,1.3759600911837627e-14,2.3684757858670005e-15,-9.81,-16.49,-13.0,-12.85,-16.49,2.502308933764973,-2.226666666666666
1 -> 2,2.310903000000001,2.310903,2.3109030000000006,2.3109030000000006,2.310903000000001,3.8459253727671276e-16,1.4802973661668753e-16,75.0,75.0,75.0,75.0,75.0,0.0,0.0,33.87000000000001,33.86999999999998,33.870000000000005,33.870000000000005,33.87000000000001,1.3759600911837627e-14,2.3684757858670005e-15,-17.25,-19.88,-18.83,-19.095,-19.88,1.0124969135755422,0.4733333333333339
1 -> 2,2.310903000000001,2.310903,2.3109030000000006,2.3109030000000006,2.310903000000001,3.8459253727671276e-16,1.4802973661668753e-16,75.0,75.0,75.0,75.0,75.0,0.0,0.0,33.87000000000001,33.86999999999998,33.870000000000005,33.870000000000005,33.87000000000001,1.3759600911837627e-14,2.3684757858670005e-15,-17.25,-19.88,-18.83,-19.095,-19.88,1.0124969135755422,0.4733333333333339
1 -> 2,2.310903000000001,2.310903,2.3109030000000006,2.3109030000000006,2.310903000000001,3.8459253727671276e-16,1.4802973661668753e-16,75.0,75.0,75.0,75.0,75.0,0.0,0.0,33.87000000000001,33.86999999999998,33.870000000000005,33.870000000000005,33.87000000000001,1.3759600911837627e-14,2.3684757858670005e-15,5.15,-13.11,-4.16,-4.34,-13.11,6.83632211060889,6.086666666666666
1 -> 2,2.310903000000001,2.310903,2.3109030000000006,2.3109030000000006,2.310903000000001,3.8459253727671276e-16,1.4802973661668753e-16,75.0,75.0,75.0,75.0,75.0,0.0,0.0,33.87000000000001,33.86999999999998,33.870000000000005,33.870000000000005,33.87000000000001,1.3759600911837627e-14,2.3684757858670005e-15,5.15,-13.11,-4.16,-4.34,-13.11,6.83632211060889,6.086666666666666
1 -> 2,2.310903000000001,2.310903,2.3109030000000006,2.3109030000000006,2.310903000000001,3.8459253727671276e-16,1.4802973661668753e-16,75.0,75.0,75.0,75.0,75.0,0.0,0.0,33.87000000000001,33.86999999999998,33.870000000000005,33.870000000000005,33.87000000000001,1.3759600911837627e-14,2.3684757858670005e-15,20.27,10.77,16.185,16.85,10.77,3.6016211627543506,3.1666666666666665
1 -> 2,2.310903000000001,2.310903,2.3109030000000006,2.3109030000000006,2.310903000000001,3.8459253727671276e-16,1.4802973661668753e-16,75.0,75.0,75.0,75.0,75.0,0.0,0.0,33.87000000000001,33.86999999999998,33.870000000000005,33.870000000000005,33.87000000000001,1.3759600911837627e-14,2.3684757858670005e-15,20.27,10.77,16.185,16.85,10.77,3.6016211627543506,3.1666666666666665
1 -> 2,2.310903000000001,2.310903,2.3109030000000006,2.3109030000000006,2.310903000000001,3.8459253727671276e-16,1.4802973661668753e-16,75.0,75.0,75.0,75.0,75.0,0.0,0.0,33.87000000000001,33.86999999999998,33.870000000000005,33.870000000000005,33.87000000000001,1.3759600911837627e-14,2.3684757858670005e-15,20.89,16.98,19.3425,19.75,16.98,1.519298769169514,-1.3033333333333335
1 -> 2,2.310903000000001,2.310903,2.3109030000000006,2.3109030000000006,2.310903000000001,3.8459253727671276e-16,1.4802973661668753e-16,75.0,75.0,75.0,75.0,75.0,0.0,0.0,33.87000000000001,33.86999999999998,33.870000000000005,33.870000000000005,33.87000000000001,1.3759600911837627e-14,2.3684757858670005e-15,20.89,16.98,19.3425,19.75,16.98,1.519298769169514,-1.3033333333333335
1 -> 2,2.307061000000001,2.307060999999999,2.307061,2.307061,2.307061000000001,8.005932084973442e-16,1.4802973661668753e-16,75.0,75.0,75.0,75.0,75.0,0.0,0.0,33.87000000000001,33.86999999999998,33.870000000000005,33.870000000000005,33.87000000000001,1.3759600911837627e-14,2.3684757858670005e-15,14.37,6.04,10.15,10.094999999999999,6.04,3.1131896826245584,-2.776666666666666
1 -> 2,2.307061000000001,2.307060999999999,2.307061,2.307061,2.307061000000001,8.005932084973442e-16,1.4802973661668753e-16,75.0,75.0,75.0,75.0,75.0,0.0,0.0,33.87000000000001,33.86999999999998,33.870000000000005,33.870000000000005,33.87000000000001,1.3759600911837627e-14,2.3684757858670005e-15,14.37,6.04,10.15,10.094999999999999,6.04,3.1131896826245584,-2.776666666666666
1 -> 2,2.307061000000001,2.307060999999999,2.307061,2.307061,2.307061000000001,8.005932084973442e-16,1.4802973661668753e-16,75.0,75.0,75.0,75.0,75.0,0.0,0.0,33.87000000000001,33.86999999999998,33.870000000000005,33.870000000000005,33.87000000000001,1.3759600911837627e-14,2.3684757858670005e-15,3.71,-1.75,0.8875000000000002,0.7949999999999999,-1.75,2.0335974896719358,-1.82
1 -> 2,2.307061000000001,2.307060999999999,2.307061,2.307061,2.307061000000001,8.005932084973442e-16,1.4802973661668753e-16,75.0,75.0,75.0,75.0,75.0,0.0,0.0,33.87000000000001,33.86999999999998,33.870000000000005,33.870000000000005,33.87000000000001,1.3759600911837627e-14,2.3684757858670005e-15,3.71,-1.75,0.8875000000000002,0.7949999999999999,-1.75,2.0335974896719358,-1.82
1 -> 2,2.307061000000001,2.307060999999999,2.307061,2.307061,2.307061000000001,8.005932084973442e-16,1.4802973661668753e-16,75.0,75.0,75.0,75.0,75.0,0.0,0.0,33.87000000000001,33.86999999999998,33.870000000000005,33.870000000000005,33.87000000000001,1.3759600911837627e-14,2.3684757858670005e-15,-3.34,-8.51,-5.8475,-5.77,-8.51,1.9235172861193632,-1.7233333333333334
1 -> 2,2.307061000000001,2.307060999999999,2.307061,2.307061,2.307061000000001,8.005932084973442e-16,1.4802973661668753e-16,75.0,75.0,75.0,75.0,75.0,0.0,0.0,33.87000000000001,33.86999999999998,33.870000000000005,33.870000000000005,33.87000000000001,1.3759600911837627e-14,2.3684757858670005e-15,-3.34,-8.51,-5.8475,-5.77,-8.51,1.9235172861193632,-1.7233333333333334
1 -> 2,2.307061000000001,2.307060999999999,2.307061,2.307061,2.307061000000001,8.005932084973442e-16,1.4802973661668753e-16,75.0,75.0,75.0,75.0,75.0,0.0,0.0,33.87000000000001,33.86999999999998,33.870000000000005,33.870000000000005,33.87000000000001,1.3759600911837627e-14,2.3684757858670005e-15,-10.78,-18.54,-14.7325,-14.805,-18.54,2.914029641235655,-2.5866666666666664
1 -> 2,2.307061000000001,2.307060999999999,2.307061,2.307061,2.307061000000001,8.005932084973442e-16,1.4802973661668753e-16,75.0,75.0,75.0,75.0,75.0,0.0,0.0,33.87000000000001,33.86999999999998,33.870000000000005,33.870000000000005,33.87000000000001,1.3759600911837627e-14,2.3684757858670005e-15,-10.78,-18.54,-14.7325,-14.805,-18.54,2.914029641235655,-2.5866666666666664
1 -> 2,2.303220000000001,2.3032199999999987,2.30322,2.3032200000000005,2.303220000000001,9.42055475210265e-16,2.9605947323337506e-16,75.0,75.0,75.0,75.0,75.0,0.0,0.0,33.87000000000001,33.86999999999998,33.870000000000005,33.870000000000005,33.87000000000001,1.3759600911837627e-14,2.3684757858670005e-15,-11.28,-19.74,-16.595,-17.68,-19.74,3.3385812855163493,2.82
1 -> 2,2.303220000000001,2.3032199999999987,2.30322,2.3032200000000005,2.303220000000001,9.42055475210265e-16,2.9605947323337506e-16,75.0,75.0,75.0,75.0,75.0,0.0,0.0,33.87000000000001,33.86999999999998,33.870000000000005,33.870000000000005,33.87000000000001,1.3759600911837627e-14,2.3684757858670005e-15,-11.28,-19.74,-16.595,-17.68,-19.74,3.3385812855163493,2.82
1 -> 2,2.303220000000001,2.3032199999999987,2.30322,2.3032200000000005,2.303220000000001,9.42055475210265e-16,2.9605947323337506e-16,75.0,75.0,75.0,75.0,75.0,0.0,0.0,33.87000000000001,33.86999999999998,33.870000000000005,33.870000000000005,33.87000000000001,1.3759600911837627e-14,2.3684757858670005e-15,14.49,-4.82,5.2,5.565,-4.82,7.2321400705462,6.436666666666667
1 -> 2,2.303220000000001,2.3032199999999987,2.30322,2.3032200000000005,2.303220000000001,9.42055475210265e-16,2.9605947323337506e-16,75.0,75.0,75.0,75.0,75.0,0.0,0.0,33.87000000000001,33.86999999999998,33.870000000000005,33.870000000000005,33.87000000000001,1.3759600911837627e-14,2.3684757858670005e-15,14.49,-4.82,5.2,5.565,-4.82,7.2321400705462,6.436666666666667
1 -> 2,2.303220000000001,2.3032199999999987,2.30322,2.3032200000000005,2.303220000000001,9.42055475210265e-16,2.9605947323337506e-16,75.0,75.0,75.0,75.0,75.0,0.0,0.0,33.87000000000001,33.86999999999998,33.870000000000005,33.870000000000005,33.87000000000001,1.3759600911837627e-14,2.3684757858670005e-15,23.07,18.67,21.490000000000002,22.11,18.67,1.7482705740245124,1.4666666666666661
1 -> 2,2.303220000000001,2.3032199999999987,2.30322,2.3032200000000005,2.303220000000001,9.42055475210265e-16,2.9605947323337506e-16,75.0,75.0,75.0,75.0,75.0,0.0,0.0,33.87000000000001,33.86999999999998,33.870000000000005,33.870000000000005,33.87000000000001,1.3759600911837627e-14,2.3684757858670005e-15,23.07,18.67,21.490000000000002,22.11,18.67,1.7482705740245124,1.4666666666666661
1 -> 2,2.303220000000001,2.3032199999999987,2.30322,2.3032200000000005,2.303220000000001,9.42055475210265e-16,2.9605947323337506e-16,75.0,75.0,75.0,75.0,75.0,0.0,0.0,33.87000000000001,33.86999999999998,33.870000000000005,33.870000000000005,33.87000000000001,1.3759600911837627e-14,2.3684757858670005e-15,22.28,15.0,18.98,19.32,15.0,2.7425626702046393,-2.426666666666667
1 -> 2,2.303220000000001,2.3032199999999987,2.30322,2.3032200000000005,2.303220000000001,9.42055475210265e-16,2.9605947323337506e-16,75.0,75.0,75.0,75.0,75.0,0.0,0.0,33.87000000000001,33.86999999999998,33.870000000000005,33.870000000000005,33.87000000000001,1.3759600911837627e-14,2.3684757858670005e-15,22.28,15.0,18.98,19.32,15.0,2.7425626702046393,-2.426666666666667
1 -> 2,2.303220000000001,2.3032199999999987,2.30322,2.3032200000000005,2.303220000000001,9.42055475210265e-16,2.9605947323337506e-16,75.0,75.0,75.0,75.0,75.0,0.0,0.0,33.87000000000001,33.86999999999998,33.870000000000005,33.870000000000005,33.87000000000001,1.3759600911837627e-14,2.3684757858670005e-15,11.65,2.66,6.9775,6.800000000000001,2.66,3.3599432658900654,-2.9966666666666666
1 -> 2,2.303220000000001,2.3032199999999987,2.30322,2.3032200000000005,2.303220000000001,9.42055475210265e-16,2.9605947323337506e-16,75.0,75.0,75.0,75.0,75.0,0.0,0.0,33.87000000000001,33.86999999999998,33.870000000000005,33.870000000000005,33.87000000000001,1.3759600911837627e-14,2.3684757858670005e-15,11.65,2.66,6.9775,6.800000000000001,2.66,3.3599432658900654,-2.9966666666666666
1 -> 2,2.303220000000001,2.3032199999999987,2.30322,2.3032200000000005,2.303220000000001,9.42055475210265e-16,2.9605947323337506e-16,75.0,75.0,75.0,75.0,75.0,0.0,0.0,33.87000000000001,33.86999999999998,33.870000000000005,33.870000000000005,33.87000000000001,1.3759600911837627e-14,2.3684757858670005e-15,0.46,-4.49,-2.095,-2.175,-4.49,1.842070845543135,-1.6500000000000001
1 -> 2,2.303220000000001,2.3032199999999987,2.30322,2.3032200000000005,2.303220000000001,9.42055475210265e-16,2.9605947323337506e-16,75.0,75.0,75.0,75.0,75.0,0.0,0.0,33.87000000000001,33.86999999999998,33.870000000000005,33.870000000000005,33.87000000000001,1.3759600911837627e-14,2.3684757858670005e-15,0.46,-4.49,-2.095,-2.175,-4.49,1.842070845543135,-1.6500000000000001
1 -> 2,2.303220000000001,2.3032199999999987,2.30322,2.3032200000000005,2.303220000000001,9.42055475210265e-16,2.9605947323337506e-16,75.0,75.0,75.0,75.0,75.0,0.0,0.0,33.87000000000001,33.86999999999998,33.870000000000005,33.870000000000005,33.87000000000001,1.3759600911837627e-14,2.3684757858670005e-15,-6.06,-12.39,-9.055,-8.885,-12.39,2.3629483701511553,-2.1100000000000003
1 -> 2,2.303220000000001,2.3032199999999987,2.30322,2.3032200000000005,2.303220000000001,9.42055475210265e-16,2.9605947323337506e-16,75.0,75.0,75.0,75.0,75.0,0.0,0.0,33.87000000000001,33.86999999999998,33.870000000000005,33.870000000000005,33.87000000000001,1.3759600911837627e-14,2.3684757858670005e-15,-6.06,-12.39,-9.055,-8.885,-12.39,2.3629483701511553,-2.1100000000000003
1 -> 2,2.303220000000001,2.3032199999999987,2.30322,2.3032200000000005,2.303220000000001,9.42055475210265e-16,2.9605947323337506e-16,75.0,75.0,75.0,75.0,75.0,0.0,0.0,33.87000000000001,33.86999999999998,33.870000000000005,33.870000000000005,33.87000000000001,1.3759600911837627e-14,2.3684757858670005e-15,-15.09,-20.86,-18.3975,-18.82,-20.86,2.2140277211453334,-1.9233333333333331
1 -> 2,2.303220000000001,2.3032199999999987,2.30322,2.3032200000000005,2.303220000000001,9.42055475210265e-16,2.9605947323337506e-16,75.0,75.0,75.0,75.0,75.0,0.0,0.0,33.87000000000001,33.86999999999998,33.870000000000005,33.870000000000005,33.87000000000001,1.3759600911837627e-14,2.3684757858670005e-15,-15.09,-20.86,-18.3975,-18.82,-20.86,2.2140277211453334,-1.9233333333333331
1 -> 2,2.305781000000001,2.3057809999999996,2.3057810000000005,2.3057810000000005,2.3057809999999996,7.021666937153402e-16,0.0,75.33,75.33,75.33,75.33,75.33,0.0,0.0,33.890000000000015,33.88999999999998,33.89,33.89,33.890000000000015,1.507288760336424e-14,4.736951571734001e-15,-5.78,-20.11,-13.899999999999999,-14.855,-20.11,5.437798267681507,4.776666666666666
1 -> 2,2.305781000000001,2.3057809999999996,2.3057810000000005,2.3057810000000005,2.3057809999999996,7.021666937153402e-16,0.0,75.33,75.33,75.33,75.33,75.33,0.0,0.0,33.890000000000015,33.88999999999998,33.89,33.89,33.890000000000015,1.507288760336424e-14,4.736951571734001e-15,-5.78,-20.11,-13.899999999999999,-14.855,-20.11,5.437798267681507,4.776666666666666
1 -> 2,2.305781000000001,2.3057809999999996,2.3057810000000005,2.3057810000000005,2.3057809999999996,7.021666937153402e-16,0.0,75.33,75.33,75.33,75.33,75.33,0.0,0.0,33.890000000000015,33.88999999999998,33.89,33.89,33.890000000000015,1.507288760336424e-14,4.736951571734001e-15,23.61,1.92,13.205,13.645,1.92,8.122544244262384,7.2299999999999995
1 -> 2,2.305781000000001,2.3057809999999996,2.3057810000000005,2.3057810000000005,2.3057809999999996,7.021666937153402e-16,0.0,75.33,75.33,75.33,75.33,75.33,0.0,0.0,33.890000000000015,33.88999999999998,33.89,33.89,33.890000000000015,1.507288760336424e-14,4.736951571734001e-15,23.61,1.92,13.205,13.645,1.92,8.122544244262384,7.2299999999999995
1 -> 2,2.305781000000001,2.3057809999999996,2.3057810000000005,2.3057810000000005,2.3057809999999996,7.021666937153402e-16,0.0,75.33,75.33,75.33,75.33,75.33,0.0,0.0,33.890000000000015,33.88999999999998,33.89,33.89,33.890000000000015,1.507288760336424e-14,4.736951571734001e-15,31.06,28.09,29.904999999999998,30.235,28.09,1.1244220737783472,0.6066666666666668
1 -> 2,2.305781000000001,2.3057809999999996,2.3057810000000005,2.3057810000000005,2.3057809999999996,7.021666937153402e-16,0.0,75.33,75.33,75.33,75.33,75.33,0.0,0.0,33.890000000000015,33.88999999999998,33.89,33.89,33.890000000000015,1.507288760336424e-14,4.736951571734001e-15,31.06,28.09,29.904999999999998,30.235,28.09,1.1244220737783472,0.6066666666666668
1 -> 2,2.305781000000001,2.3057809999999996,2.3057810000000005,2.3057810000000005,2.3057809999999996,7.021666937153402e-16,0.0,75.33,75.33,75.33,75.33,75.33,0.0,0.0,33.890000000000015,33.88999999999998,33.89,33.89,33.890000000000015,1.507288760336424e-14,4.736951571734001e-15,27.63,19.62,23.545,23.465,19.62,2.9975865291931107,-2.6699999999999995
1 -> 2,2.305781000000001,2.3057809999999996,2.3057810000000005,2.3057810000000005,2.3057809999999996,7.021666937153402e-16,0.0,75.33,75.33,75.33,75.33,75.33,0.0,0.0,33.890000000000015,33.88999999999998,33.89,33.89,33.890000000000015,1.507288760336424e-14,4.736951571734001e-15,27.63,19.62,23.545,23.465,19.62,2.9975865291931107,-2.6699999999999995
1 -> 2,2.305781000000001,2.3057809999999996,2.3057810000000005,2.3057810000000005,2.3057809999999996,7.021666937153402e-16,0.0,75.33,75.33,75.33,75.33,75.33,0.0,0.0,33.890000000000015,33.88999999999998,33.89,33.89,33.890000000000015,1.507288760336424e-14,4.736951571734001e-15,17.52,11.87,14.707499999999998,14.72,11.87,2.1008733303081364,-1.8833333333333335
1 -> 2,2.305781000000001,2.3057809999999996,2.3057810000000005,2.3057810000000005,2.3057809999999996,7.021666937153402e-16,0.0,75.33,75.33,75.33,75.33,75.33,0.0,0.0,33.890000000000015,33.88999999999998,33.89,33.89,33.890000000000015,1.507288760336424e-14,4.736951571734001e-15,17.52,11.87,14.707499999999998,14.72,11.87,2.1008733303081364,-1.8833333333333335
1 -> 2,2.305781000000001,2.3057809999999996,2.3057810000000005,2.3057810000000005,2.3057809999999996,7.021666937153402e-16,0.0,75.33,75.33,75.33,75.33,75.33,0.0,0.0,33.890000000000015,33.88999999999998,33.89,33.89,33.890000000000015,1.507288760336424e-14,4.736951571734001e-15,9.88,4.86,7.2425,7.115,4.86,1.8770505454036128,-1.6733333333333336
1 -> 2,2.305781000000001,2.3057809999999996,2.3057810000000005,2.3057810000000005,2.3057809999999996,7.021666937153402e-16,0.0,75.33,75.33,75.33,75.33,75.33,0.0,0.0,33.890000000000015,33.88999999999998,33.89,33.89,33.890000000000015,1.507288760336424e-14,4.736951571734001e-15,9.88,4.86,7.2425,7.115,4.86,1.8770505454036128,-1.6733333333333336
1 -> 2,2.305781000000001,2.3057809999999996,2.3057810000000005,2.3057810000000005,2.3057809999999996,7.021666937153402e-16,0.0,75.33,75.33,75.33,75.33,75.33,0.0,0.0,33.890000000000015,33.88999999999998,33.89,33.89,33.890000000000015,1.507288760336424e-14,4.736951571734001e-15,3.67,-1.08,1.5175,1.74,-1.08,1.7730253100280324,-1.5833333333333333
1 -> 2,2.305781000000001,2.3057809999999996,2.3057810000000005,2.3057810000000005,2.3057809999999996,7.021666937153402e-16,0.0,75.33,75.33,75.33,75.33,75.33,0.0,0.0,33.890000000000015,33.88999999999998,33.89,33.89,33.890000000000015,1.507288760336424e-14,4.736951571734001e-15,3.67,-1.08,1.5175,1.74,-1.08,1.7730253100280324,-1.5833333333333333
1 -> 2,2.305781000000001,2.3057809999999996,2.3057810000000005,2.3057810000000005,2.3057809999999996,7.021666937153402e-16,0.0,75.33,75.33,75.33,75.33,75.33,0.0,0.0,33.890000000000015,33.88999999999998,33.89,33.89,33.890000000000015,1.507288760336424e-14,4.736951571734001e-15,-3.98,-16.59,-10.115,-9.945,-16.59,4.723814666135834,-4.203333333333333
1 -> 2,2.305781000000001,2.3057809999999996,2.3057810000000005,2.3057810000000005,2.3057809999999996,7.021666937153402e-16,0.0,75.33,75.33,75.33,75.33,75.33,0.0,0.0,33.890000000000015,33.88999999999998,33.89,33.89,33.890000000000015,1.507288760336424e-14,4.736951571734001e-15,-3.98,-16.59,-10.115,-9.945,-16.59,4.723814666135834,-4.203333333333333
1 -> 2,2.301939000000001,2.301938999999999,2.3019390000000004,2.301939000000001,2.301939000000001,7.691850745534255e-16,5.921189464667501e-16,75.33,75.33,75.33,75.33,75.33,0.0,0.0,33.890000000000015,33.88999999999998,33.89,33.89,33.890000000000015,1.507288760336424e-14,4.736951571734001e-15,-17.94,-22.12,-20.44,-20.85,-22.12,1.5931729347437458,0.7666666666666657
1 -> 2,2.301939000000001,2.301938999999999,2.3019390000000004,2.301939000000001,2.301939000000001,7.691850745534255e-16,5.921189464667501e-16,75.33,75.33,75.33,75.33,75.33,0.0,0.0,33.890000000000015,33.88999999999998,33.89,33.89,33.890000000000015,1.507288760336424e-14,4.736951571734001e-15,-17.94,-22.12,-20.44,-20.85,-22.12,1.5931729347437458,0.7666666666666657
1 -> 2,2.301939000000001,2.301938999999999,2.3019390000000004,2.301939000000001,2.301939000000001,7.691850745534255e-16,5.921189464667501e-16,75.33,75.33,75.33,75.33,75.33,0.0,0.0,33.890000000000015,33.88999999999998,33.89,33.89,33.890000000000015,1.507288760336424e-14,4.736951571734001e-15,13.58,-11.8,0.7525,0.6149999999999998,-11.8,9.499419390152221,8.46
1 -> 2,2.301939000000001,2.301938999999999,2.3019390000000004,2.301939000000001,2.301939000000001,7.691850745534255e-16,5.921189464667501e-16,75.33,75.33,75.33,75.33,75.33,0.0,0.0,33.890000000000015,33.88999999999998,33.89,33.89,33.890000000000015,1.507288760336424e-14,4.736951571734001e-15,13.58,-11.8,0.7525,0.6149999999999998,-11.8,9.499419390152221,8.46
1 -> 2,2.301939000000001,2.301938999999999,2.3019390000000004,2.301939000000001,2.301939000000001,7.691850745534255e-16,5.921189464667501e-16,75.33,75.33,75.33,75.33,75.33,0.0,0.0,33.890000000000015,33.88999999999998,33.89,33.89,33.890000000000015,1.507288760336424e-14,4.736951571734001e-15,32.53,21.03,27.76,28.740000000000002,21.03,4.3993294943661585,3.8333333333333335
1 -> 2,2.301939000000001,2.301938999999999,2.3019390000000004,2.301939000000001,2.301939000000001,7.691850745534255e-16,5.921189464667501e-16,75.33,75.33,75.33,75.33,75.33,0.0,0.0,33.890000000000015,33.88999999999998,33.89,33.89,33.890000000000015,1.507288760336424e-14,4.736951571734001e-15,32.53,21.03,27.76,28.740000000000002,21.03,4.3993294943661585,3.8333333333333335
1 -> 2,2.301939000000001,2.301938999999999,2.3019390000000004,2.301939000000001,2.301939000000001,7.691850745534255e-16,5.921189464667501e-16,75.33,75.33,75.33,75.33,75.33,0.0,0.0,33.890000000000015,33.88999999999998,33.89,33.89,33.890000000000015,1.507288760336424e-14,4.736951571734001e-15,32.5,24.11,28.8175,29.33,24.11,3.186984272003864,-2.796666666666667
1 -> 2,2.301939000000001,2.301938999999999,2.3019390000000004,2.301939000000001,2.301939000000001,7.691850745534255e-16,5.921189464667501e-16,75.33,75.33,75.33,75.33,75.33,0.0,0.0,33.890000000000015,33.88999999999998,33.89,33.89,33.890000000000015,1.507288760336424e-14,4.736951571734001e-15,32.5,24.11,28.8175,29.33,24.11,3.186984272003864,-2.796666666666667
1 -> 2,2.296816000000001,2.2968159999999993,2.2968160000000006,2.2968160000000006,2.296816000000001,7.364386412590295e-16,4.440892098500626e-16,75.33,75.33,75.33,75.33,75.33,0.0,0.0,33.890000000000015,33.88999999999998,33.89,33.89,33.890000000000015,1.507288760336424e-14,4.736951571734001e-15,20.13,10.57,15.0475,14.745000000000001,10.57,3.580477447212871,-3.186666666666666
1 -> 2,2.296816000000001,2.2968159999999993,2.2968160000000006,2.2968160000000006,2.296816000000001,7.364386412590295e-16,4.440892098500626e-16,75.33,75.33,75.33,75.33,75.33,0.0,0.0,33.890000000000015,33.88999999999998,33.89,33.89,33.890000000000015,1.507288760336424e-14,4.736951571734001e-15,20.13,10.57,15.0475,14.745000000000001,10.57,3.580477447212871,-3.186666666666666
1 -> 2,2.296816000000001,2.2968159999999993,2.2968160000000006,2.2968160000000006,2.296816000000001,7.364386412590295e-16,4.440892098500626e-16,75.33,75.33,75.33,75.33,75.33,0.0,0.0,33.890000000000015,33.88999999999998,33.89,33.89,33.890000000000015,1.507288760336424e-14,4.736951571734001e-15,8.62,4.32,6.435,6.4,4.32,1.5948902783577306,-1.433333333333333
1 -> 2,2.296816000000001,2.2968159999999993,2.2968160000000006,2.2968160000000006,2.296816000000001,7.364386412590295e-16,4.440892098500626e-16,75.33,75.33,75.33,75.33,75.33,0.0,0.0,33.890000000000015,33.88999999999998,33.89,33.89,33.890000000000015,1.507288760336424e-14,4.736951571734001e-15,8.62,4.32,6.435,6.4,4.32,1.5948902783577306,-1.433333333333333
1 -> 2,2.296816000000001,2.2968159999999993,2.2968160000000006,2.2968160000000006,2.296816000000001,7.364386412590295e-16,4.440892098500626e-16,75.33,75.33,75.33,75.33,75.33,0.0,0.0,33.890000000000015,33.88999999999998,33.89,33.89,33.890000000000015,1.507288760336424e-14,4.736951571734001e-15,2.77,-1.9,0.3750000000000001,0.31500000000000006,-1.9,1.7474910586323467,-1.5566666666666666
1 -> 2,2.296816000000001,2.2968159999999993,2.2968160000000006,2.2968160000000006,2.296816000000001,7.364386412590295e-16,4.440892098500626e-16,75.33,75.33,75.33,75.33,75.33,0.0,0.0,33.890000000000015,33.88999999999998,33.89,33.89,33.890000000000015,1.507288760336424e-14,4.736951571734001e-15,2.77,-1.9,0.3750000000000001,0.31500000000000006,-1.9,1.7474910586323467,-1.5566666666666666
1 -> 2,2.296816000000001,2.2968159999999993,2.2968160000000006,2.2968160000000006,2.296816000000001,7.364386412590295e-16,4.440892098500626e-16,75.33,75.33,75.33,75.33,75.33,0.0,0.0,33.890000000000015,33.88999999999998,33.89,33.89,33.890000000000015,1.507288760336424e-14,4.736951571734001e-15,-3.05,-6.95,-4.81,-4.62,-6.95,1.4510513429923837,-1.3
1 -> 2,2.296816000000001,2.2968159999999993,2.2968160000000006,2.2968160000000006,2.296816000000001,7.364386412590295e-16,4.440892098500626e-16,75.33,75.33,75.33,75.33,75.33,0.0,0.0,33.890000000000015,33.88999999999998,33.89,33.89,33.890000000000015,1.507288760336424e-14,4.736951571734001e-15,-3.05,-6.95,-4.81,-4.62,-6.95,1.4510513429923837,-1.3
1 -> 2,2.294255000000001,2.2942549999999997,2.2942550000000006,2.2942550000000006,2.294255000000001,5.874748045952207e-16,1.4802973661668753e-16,75.3,75.3,75.3,75.3,75.3,0.0,0.0,33.87000000000001,33.86999999999998,33.870000000000005,33.870000000000005,33.87000000000001,1.3759600911837627e-14,2.3684757858670005e-15,-9.68,-23.29,-16.195,-15.905000000000001,-23.29,5.104745341346618,-4.536666666666666
1 -> 2,2.294255000000001,2.2942549999999997,2.2942550000000006,2.2942550000000006,2.294255000000001,5.874748045952207e-16,1.4802973661668753e-16,75.3,75.3,75.3,75.3,75.3,0.0,0.0,33.87000000000001,33.86999999999998,33.870000000000005,33.870000000000005,33.87000000000001,1.3759600911837627e-14,2.3684757858670005e-15,-9.68,-23.29,-16.195,-15.905000000000001,-23.29,5.104745341346618,-4.536666666666666
1 -> 2,2.294255000000001,2.2942549999999997,2.2942550000000006,2.2942550000000006,2.294255000000001,5.874748045952207e-16,1.4802973661668753e-16,75.3,75.3,75.3,75.3,75.3,0.0,0.0,33.87000000000001,33.86999999999998,33.870000000000005,33.870000000000005,33.87000000000001,1.3759600911837627e-14,2.3684757858670005e-15,-27.64,-30.55,-29.0925,-29.09,-30.55,1.36099917340166,-0.06333333333333258
1 -> 2,2.294255000000001,2.2942549999999997,2.2942550000000006,2.2942550000000006,2.294255000000001,5.874748045952207e-16,1.4802973661668753e-16,75.3,75.3,75.3,75.3,75.3,0.0,0.0,33.87000000000001,33.86999999999998,33.870000000000005,33.870000000000005,33.87000000000001,1.3759600911837627e-14,2.3684757858670005e-15,-27.64,-30.55,-29.0925,-29.09,-30.55,1.36099917340166,-0.06333333333333258
1 -> 2,2.294255000000001,2.2942549999999997,2.2942550000000006,2.2942550000000006,2.294255000000001,5.874748045952207e-16,1.4802973661668753e-16,75.3,75.3,75.3,75.3,75.3,0.0,0.0,33.87000000000001,33.86999999999998,33.870000000000005,33.870000000000005,33.87000000000001,1.3759600911837627e-14,2.3684757858670005e-15,3.96,-22.24,-9.487499999999999,-9.835,-22.24,9.813244557739301,8.733333333333333
1 -> 2,2.294255000000001,2.2942549999999997,2.2942550000000006,2.2942550000000006,2.294255000000001,5.874748045952207e-16,1.4802973661668753e-16,75.3,75.3,75.3,75.3,75.3,0.0,0.0,33.87000000000001,33.86999999999998,33.870000000000005,33.870000000000005,33.87000000000001,1.3759600911837627e-14,2.3684757858670005e-15,3.96,-22.24,-9.487499999999999,-9.835,-22.24,9.813244557739301,8.733333333333333
1 -> 2,2.294255000000001,2.2942549999999997,2.2942550000000006,2.2942550000000006,2.294255000000001,5.874748045952207e-16,1.4802973661668753e-16,75.3,75.3,75.3,75.3,75.3,0.0,0.0,33.87000000000001,33.86999999999998,33.870000000000005,33.870000000000005,33.87000000000001,1.3759600911837627e-14,2.3684757858670005e-15,26.12,12.3,20.267500000000002,21.325,12.3,5.262619951127005,4.6066666666666665
1 -> 2,2.294255000000001,2.2942549999999997,2.2942550000000006,2.2942550000000006,2.294255000000001,5.874748045952207e-16,1.4802973661668753e-16,75.3,75.3,75.3,75.3,75.3,0.0,0.0,33.87000000000001,33.86999999999998,33.870000000000005,33.870000000000005,33.87000000000001,1.3759600911837627e-14,2.3684757858670005e-15,26.12,12.3,20.267500000000002,21.325,12.3,5.262619951127005,4.6066666666666665
1 -> 2,2.292974000000001,2.2929739999999987,2.292974,2.292974,2.292974000000001,9.42055475210265e-16,2.9605947323337506e-16,75.3,75.3,75.3,75.3,75.3,0.0,0.0,33.87000000000001,33.86999999999998,33.870000000000005,33.870000000000005,33.87000000000001,1.3759600911837627e-14,2.3684757858670005e-15,26.5,18.01,22.8775,23.5,18.01,3.2438432067533713,-2.8299999999999996
1 -> 2,2.292974000000001,2.2929739999999987,2.292974,2.292974,2.292974000000001,9.42055475210265e-16,2.9605947323337506e-16,75.3,75.3,75.3,75.3,75.3,0.0,0.0,33.87000000000001,33.86999999999998,33.870000000000005,33.870000000000005,33.87000000000001,1.3759600911837627e-14,2.3684757858670005e-15,26.5,18.01,22.8775,23.5,18.01,3.2438432067533713,-2.8299999999999996
1 -> 2,2.292974000000001,2.2929739999999987,2.292974,2.292974,2.292974000000001,9.42055475210265e-16,2.9605947323337506e-16,75.3,75.3,75.3,75.3,75.3,0.0,0.0,33.87000000000001,33.86999999999998,33.870000000000005,33.870000000000005,33.87000000000001,1.3759600911837627e-14,2.3684757858670005e-15,13.68,4.07,8.4475,8.02,4.07,3.613200624100466,-3.203333333333333
1 -> 2,2.292974000000001,2.2929739999999987,2.292974,2.292974,2.292974000000001,9.42055475210265e-16,2.9605947323337506e-16,75.3,75.3,75.3,75.3,75.3,0.0,0.0,33.87000000000001,33.86999999999998,33.870000000000005,33.870000000000005,33.87000000000001,1.3759600911837627e-14,2.3684757858670005e-15,13.68,4.07,8.4475,8.02,4.07,3.613200624100466,-3.203333333333333
1 -> 2,2.292974000000001,2.2929739999999987,2.292974,2.292974,2.292974000000001,9.42055475210265e-16,2.9605947323337506e-16,75.3,75.3,75.3,75.3,75.3,0.0,0.0,33.87000000000001,33.86999999999998,33.870000000000005,33.870000000000005,33.87000000000001,1.3759600911837627e-14,2.3684757858670005e-15,2.5,-1.37,0.6249999999999999,0.685,-1.37,1.4369498947423323,-1.29
1 -> 2,2.292974000000001,2.2929739999999987,2.292974,2.292974,2.292974000000001,9.42055475210265e-16,2.9605947323337506e-16,75.3,75.3,75.3,75.3,75.3,0.0,0.0,33.87000000000001,33.86999999999998,33.870000000000005,33.870000000000005,33.87000000000001,1.3759600911837627e-14,2.3684757858670005e-15,2.5,-1.37,0.6249999999999999,0.685,-1.37,1.4369498947423323,-1.29
1 -> 2,2.292974000000001,2.2929739999999987,2.292974,2.292974,2.292974000000001,9.42055475210265e-16,2.9605947323337506e-16,75.3,75.3,75.3,75.3,75.3,0.0,0.0,33.87000000000001,33.86999999999998,33.870000000000005,33.870000000000005,33.87000000000001,1.3759600911837627e-14,2.3684757858670005e-15,-2.96,-6.24,-4.800000000000001,-5.0,-6.24,1.2416118556135005,-1.0933333333333335
1 -> 2,2.292974000000001,2.2929739999999987,2.292974,2.292974,2.292974000000001,9.42055475210265e-16,2.9605947323337506e-16,75.3,75.3,75.3,75.3,75.3,0.0,0.0,33.87000000000001,33.86999999999998,33.870000000000005,33.870000000000005,33.87000000000001,1.3759600911837627e-14,2.3684757858670005e-15,-2.96,-6.24,-4.800000000000001,-5.0,-6.24,1.2416118556135005,-1.0933333333333335
1 -> 2,2.292974000000001,2.2929739999999987,2.292974,2.292974,2.292974000000001,9.42055475210265e-16,2.9605947323337506e-16,75.3,75.3,75.3,75.3,75.3,0.0,0.0,33.87000000000001,33.86999999999998,33.870000000000005,33.870000000000005,33.87000000000001,1.3759600911837627e-14,2.3684757858670005e-15,-6.63,-9.58,-7.7875,-7.470000000000001,-9.58,1.1318430765790815,-0.9833333333333334
1 -> 2,2.292974000000001,2.2929739999999987,2.292974,2.292974,2.292974000000001,9.42055475210265e-16,2.9605947323337506e-16,75.3,75.3,75.3,75.3,75.3,0.0,0.0,33.87000000000001,33.86999999999998,33.870000000000005,33.870000000000005,33.87000000000001,1.3759600911837627e-14,2.3684757858670005e-15,-6.63,-9.58,-7.7875,-7.470000000000001,-9.58,1.1318430765790815,-0.9833333333333334
1 -> 2,2.292974000000001,2.2929739999999987,2.292974,2.292974,2.292974000000001,9.42055475210265e-16,2.9605947323337506e-16,75.3,75.3,75.3,75.3,75.3,0.0,0.0,33.87000000000001,33.86999999999998,33.870000000000005,33.870000000000005,33.87000000000001,1.3759600911837627e-14,2.3684757858670005e-15,-12.31,-25.16,-18.5325,-18.33,-25.16,4.8179423771979675,-4.283333333333333
1 -> 2,2.292974000000001,2.2929739999999987,2.292974,2.292974,2.292974000000001,9.42055475210265e-16,2.9605947323337506e-16,75.3,75.3,75.3,75.3,75.3,0.0,0.0,33.87000000000001,33.86999999999998,33.870000000000005,33.870000000000005,33.87000000000001,1.3759600911837627e-14,2.3684757858670005e-15,-12.31,-25.16,-18.5325,-18.33,-25.16,4.8179423771979675,-4.283333333333333
1 -> 2,2.292974000000001,2.2929739999999987,2.292974,2.292974,2.292974000000001,9.42055475210265e-16,2.9605947323337506e-16,75.3,75.3,75.3,75.3,75.3,0.0,0.0,33.87000000000001,33.86999999999998,33.870000000000005,33.870000000000005,33.87000000000001,1.3759600911837627e-14,2.3684757858670005e-15,-26.92,-30.95,-29.3,-29.665,-30.95,1.5576103492208817,0.6733333333333332
1 -> 2,2.292974000000001,2.2929739999999987,2.292974,2.292974,2.292974000000001,9.42055475210265e-16,2.9605947323337506e-16,75.3,75.3,75.3,75.3,75.3,0.0,0.0,33.87000000000001,33.86999999999998,33.870000000000005,33.870000000000005,33.87000000000001,1.3759600911837627e-14,2.3684757858670005e-15,-26.92,-30.95,-29.3,-29.665,-30.95,1.5576103492208817,0.6733333333333332
1 -> 2,2.292974000000001,2.2929739999999987,2.292974,2.292974,2.292974000000001,9.42055475210265e-16,2.9605947323337506e-16,75.3,75.3,75.3,75.3,75.3,0.0,0.0,33.87000000000001,33.86999999999998,33.870000000000005,33.870000000000005,33.87000000000001,1.3759600911837627e-14,2.3684757858670005e-15,5.64,-20.72,-7.759999999999998,-7.98,-20.72,9.866460864970783,8.786666666666667
1 -> 2,2.292974000000001,2.2929739999999987,2.292974,2.292974,2.292974000000001,9.42055475210265e-16,2.9605947323337506e-16,75.3,75.3,75.3,75.3,75.3,0.0,0.0,33.87000000000001,33.86999999999998,33.870000000000005,33.870000000000005,33.87000000000001,1.3759600911837627e-14,2.3684757858670005e-15,5.64,-20.72,-7.759999999999998,-7.98,-20.72,9.866460864970783,8.786666666666667
1 -> 2,2.291694000000001,2.2916939999999992,2.2916940000000006,2.2916940000000006,2.291694000000001,7.691850745534255e-16,-2.9605947323337506e-16,75.3,75.3,75.3,75.3,75.3,0.0,0.0,33.87000000000001,33.86999999999998,33.870000000000005,33.870000000000005,33.87000000000001,1.3759600911837627e-14,2.3684757858670005e-15,29.35,13.81,22.3975,23.215,13.81,5.852159323702662,5.180000000000001
1 -> 2,2.291694000000001,2.2916939999999992,2.2916940000000006,2.2916940000000006,2.291694000000001,7.691850745534255e-16,-2.9605947323337506e-16,75.3,75.3,75.3,75.3,75.3,0.0,0.0,33.87000000000001,33.86999999999998,33.870000000000005,33.870000000000005,33.87000000000001,1.3759600911837627e-14,2.3684757858670005e-15,29.35,13.81,22.3975,23.215,13.81,5.852159323702662,5.180000000000001
1 -> 2,2.291694000000001,2.2916939999999992,2.2916940000000006,2.2916940000000006,2.291694000000001,7.691850745534255e-16,-2.9605947323337506e-16,75.3,75.3,75.3,75.3,75.3,0.0,0.0,33.87000000000001,33.86999999999998,33.870000000000005,33.870000000000005,33.87000000000001,1.3759600911837627e-14,2.3684757858670005e-15,31.41,27.82,30.15,30.685000000000002,27.82,1.4247280442245809,-1.1266666666666663
1 -> 2,2.291694000000001,2.2916939999999992,2.2916940000000006,2.2916940000000006,2.291694000000001,7.691850745534255e-16,-2.9605947323337506e-16,75.3,75.3,75.3,75.3,75.3,0.0,0.0,33.87000000000001,33.86999999999998,33.870000000000005,33.870000000000005,33.87000000000001,1.3759600911837627e-14,2.3684757858670005e-15,31.41,27.82,30.15,30.685000000000002,27.82,1.4247280442245809,-1.1266666666666663
1 -> 2,2.291694000000001,2.2916939999999992,2.2916940000000006,2.2916940000000006,2.291694000000001,7.691850745534255e-16,-2.9605947323337506e-16,75.3,75.3,75.3,75.3,75.3,0.0,0.0,33.87000000000001,33.86999999999998,33.870000000000005,33.870000000000005,33.87000000000001,1.3759600911837627e-14,2.3684757858670005e-15,24.81,16.35,20.402500000000003,20.225,16.35,3.1657493188817076,-2.819999999999999
1 -> 2,2.291694000000001,2.2916939999999992,2.2916940000000006,2.2916940000000006,2.291694000000001,7.691850745534255e-16,-2.9605947323337506e-16,75.3,75.3,75.3,75.3,75.3,0.0,0.0,33.87000000000001,33.86999999999998,33.870000000000005,33.870000000000005,33.87000000000001,1.3759600911837627e-14,2.3684757858670005e-15,24.81,16.35,20.402500000000003,20.225,16.35,3.1657493188817076,-2.819999999999999
1 -> 2,2.291694000000001,2.2916939999999992,2.2916940000000006,2.2916940000000006,2.291694000000001,7.691850745534255e-16,-2.9605947323337506e-16,75.3,75.3,75.3,75.3,75.3,0.0,0.0,33.87000000000001,33.86999999999998,33.870000000000005,33.870000000000005,33.87000000000001,1.3759600911837627e-14,2.3684757858670005e-15,14.41,10.46,12.3225,12.21,10.46,1.4723344558896934,-1.3166666666666664
1 -> 2,2.291694000000001,2.2916939999999992,2.2916940000000006,2.2916940000000006,2.291694000000001,7.691850745534255e-16,-2.9605947323337506e-16,75.3,75.3,75.3,75.3,75.3,0.0,0.0,33.87000000000001,33.86999999999998,33.870000000000005,33.870000000000005,33.87000000000001,1.3759600911837627e-14,2.3684757858670005e-15,14.41,10.46,12.3225,12.21,10.46,1.4723344558896934,-1.3166666666666664
1 -> 2,2.291694000000001,2.2916939999999992,2.2916940000000006,2.2916940000000006,2.291694000000001,7.691850745534255e-16,-2.9605947323337506e-16,75.0,75.0,75.0,75.0,75.0,0.0,0.0,33.890000000000015,33.88999999999998,33.89,33.89,33.890000000000015,1.507288760336424e-14,4.736951571734001e-15,9.44,5.72,7.6899999999999995,7.800000000000001,5.72,1.3863260799682013,-1.24
1 -> 2,2.291694000000001,2.2916939999999992,2.2916940000000006,2.2916940000000006,2.291694000000001,7.691850745534255e-16,-2.9605947323337506e-16,75.0,75.0,75.0,75.0,75.0,0.0,0.0,33.890000000000015,33.88999999999998,33.89,33.89,33.890000000000015,1.507288760336424e-14,4.736951571734001e-15,9.44,5.72,7.6899999999999995,7.800000000000001,5.72,1.3863260799682013,-1.24
1 -> 2,2.291694000000001,2.2916939999999992,2.2916940000000006,2.2916940000000006,2.291694000000001,7.691850745534255e-16,-2.9605947323337506e-16,75.0,75.0,75.0,75.0,75.0,0.0,0.0,33.890000000000015,33.88999999999998,33.89,33.89,33.890000000000015,1.507288760336424e-14,4.736951571734001e-15,3.91,-2.63,0.6775,0.7150000000000001,-2.63,2.443249629080091,-2.18
