PHASE,EDA_MAX,EDA_MIN,EDA_MEAN,EDA_MEDIAN,EDA_MODE,EDA_SD,HR_MAX,HR_MIN,HR_MEAN,HR_MEDIAN,HR_MODE,HR_SD,SKT_MAX,SKT_MIN,SKT_MEAN,SKT_MEDIAN,SKT_MODE,SKT_SD,BVP_MAX,BVP_MIN,BVP_MEAN,BVP_MEDIAN,BVP_MODE,BVP_SD
1 -> 2,0.5568760000000003,0.5568759999999998,0.556876,0.5568760000000001,0.5568760000000003,2.0014830212433605e-16,61.0,61.0,61.0,61.0,61.0,0.0,33.79000000000001,33.78999999999999,33.790000000000006,33.790000000000006,33.79000000000001,8.702335715267317e-15,-40.84,-46.87,-43.68,-43.504999999999995,-46.87,2.243156258489362
1 -> 2,0.5568760000000003,0.5568759999999998,0.556876,0.5568760000000001,0.5568760000000003,2.0014830212433605e-16,61.0,61.0,61.0,61.0,61.0,0.0,33.79000000000001,33.78999999999999,33.790000000000006,33.790000000000006,33.79000000000001,8.702335715267317e-15,-40.84,-46.87,-43.68,-43.504999999999995,-46.87,2.243156258489362
1 -> 2,0.5568760000000003,0.5568759999999998,0.556876,0.5568760000000001,0.5568760000000003,2.0014830212433605e-16,61.0,61.0,61.0,61.0,61.0,0.0,33.79000000000001,33.78999999999999,33.790000000000006,33.790000000000006,33.79000000000001,8.702335715267317e-15,-49.74,-54.39,-52.722500000000004,-53.379999999999995,-54.39,1.8675970523643468
1 -> 2,0.5568760000000003,0.5568759999999998,0.556876,0.5568760000000001,0.5568760000000003,2.0014830212433605e-16,61.0,61.0,61.0,61.0,61.0,0.0,33.79000000000001,33.78999999999999,33.790000000000006,33.790000000000006,33.79000000000001,8.702335715267317e-15,-49.74,-54.39,-52.722500000000004,-53.379999999999995,-54.39,1.8675970523643468
1 -> 2,0.5568760000000003,0.5568759999999998,0.556876,0.5568760000000001,0.5568760000000003,2.0014830212433605e-16,61.0,61.0,61.0,61.0,61.0,0.0,33.79000000000001,33.78999999999999,33.790000000000006,33.790000000000006,33.79000000000001,8.702335715267317e-15,-25.24,-51.19,-39.35,-40.485,-51.19,9.775788970717402
1 -> 2,0.5568760000000003,0.5568759999999998,0.556876,0.5568760000000001,0.5568760000000003,2.0014830212433605e-16,61.0,61.0,61.0,61.0,61.0,0.0,33.79000000000001,33.78999999999999,33.790000000000006,33.790000000000006,33.79000000000001,8.702335715267317e-15,-25.24,-51.19,-39.35,-40.485,-51.19,9.775788970717402
1 -> 2,0.5568760000000003,0.5568759999999998,0.556876,0.5568760000000001,0.5568760000000003,2.0014830212433605e-16,61.0,61.0,61.0,61.0,61.0,0.0,33.79000000000001,33.78999999999999,33.790000000000006,33.790000000000006,33.79000000000001,8.702335715267317e-15,8.69,-14.14,-1.4500000000000006,-0.17499999999999982,-14.14,8.630153532817362
1 -> 2,0.5568760000000003,0.5568759999999998,0.556876,0.5568760000000001,0.5568760000000003,2.0014830212433605e-16,61.0,61.0,61.0,61.0,61.0,0.0,33.79000000000001,33.78999999999999,33.790000000000006,33.790000000000006,33.79000000000001,8.702335715267317e-15,8.69,-14.14,-1.4500000000000006,-0.17499999999999982,-14.14,8.630153532817362
1 -> 2,0.5555960000000002,0.5555959999999998,0.555596,0.555596,0.5555960000000002,2.0014830212433605e-16,61.0,61.0,61.0,61.0,61.0,0.0,33.79000000000001,33.78999999999999,33.790000000000006,33.790000000000006,33.79000000000001,8.702335715267317e-15,10.52,2.77,7.3725,8.1,2.77,3.0195229341735423
1 -> 2,0.5555960000000002,0.5555959999999998,0.555596,0.555596,0.5555960000000002,2.0014830212433605e-16,61.0,61.0,61.0,61.0,61.0,0.0,33.79000000000001,33.78999999999999,33.790000000000006,33.790000000000006,33.79000000000001,8.702335715267317e-15,10.52,2.77,7.3725,8.1,2.77,3.0195229341735423
1 -> 2,0.5555960000000002,0.5555959999999998,0.555596,0.555596,0.5555960000000002,2.0014830212433605e-16,61.0,61.0,61.0,61.0,61.0,0.0,33.79000000000001,33.78999999999999,33.790000000000006,33.790000000000006,33.79000000000001,8.702335715267317e-15,-0.85,-3.89,-2.6675,-2.965,-3.89,1.1345566314644677
1 -> 2,0.5555960000000002,0.5555959999999998,0.555596,0.555596,0.5555960000000002,2.0014830212433605e-16,61.0,61.0,61.0,61.0,61.0,0.0,33.79000000000001,33.78999999999999,33.790000000000006,33.790000000000006,33.79000000000001,8.702335715267317e-15,-0.85,-3.89,-2.6675,-2.965,-3.89,1.1345566314644677
1 -> 2,0.5555960000000002,0.5555959999999998,0.555596,0.555596,0.5555960000000002,2.0014830212433605e-16,61.0,61.0,61.0,61.0,61.0,0.0,33.79000000000001,33.78999999999999,33.790000000000006,33.790000000000006,33.79000000000001,8.702335715267317e-15,11.53,0.06,5.762499999999999,5.73,0.06,4.294900318982968
1 -> 2,0.5555960000000002,0.5555959999999998,0.555596,0.555596,0.5555960000000002,2.0014830212433605e-16,61.0,61.0,61.0,61.0,61.0,0.0,33.79000000000001,33.78999999999999,33.790000000000006,33.790000000000006,33.79000000000001,8.702335715267317e-15,11.53,0.06,5.762499999999999,5.73,0.06,4.294900318982968
1 -> 2,0.5555960000000002,0.5555959999999998,0.555596,0.555596,0.5555960000000002,2.0014830212433605e-16,61.0,61.0,61.0,61.0,61.0,0.0,33.79000000000001,33.78999999999999,33.790000000000006,33.790000000000006,33.79000000000001,8.702335715267317e-15,17.97,14.69,16.845,17.36,14.69,1.3098950339626454
1 -> 2,0.5555960000000002,0.5555959999999998,0.555596,0.555596,0.5555960000000002,2.0014830212433605e-16,61.0,61.0,61.0,61.0,61.0,0.0,33.79000000000001,33.78999999999999,33.790000000000006,33.790000000000006,33.79000000000001,8.702335715267317e-15,17.97,14.69,16.845,17.36,14.69,1.3098950339626454
1 -> 2,0.5568760000000003,0.5568759999999998,0.556876,0.5568760000000001,0.5568760000000003,2.0014830212433605e-16,61.0,61.0,61.0,61.0,61.0,0.0,33.79000000000001,33.78999999999999,33.790000000000006,33.790000000000006,33.79000000000001,8.702335715267317e-15,16.6,9.84,13.322500000000002,13.425,9.84,2.5347226179603957
1 -> 2,0.5568760000000003,0.5568759999999998,0.556876,0.5568760000000001,0.5568760000000003,2.0014830212433605e-16,61.0,61.0,61.0,61.0,61.0,0.0,33.79000000000001,33.78999999999999,33.790000000000006,33.790000000000006,33.79000000000001,8.702335715267317e-15,16.6,9.84,13.322500000000002,13.425,9.84,2.5347226179603957
1 -> 2,0.5568760000000003,0.5568759999999998,0.556876,0.5568760000000001,0.5568760000000003,2.0014830212433605e-16,61.0,61.0,61.0,61.0,61.0,0.0,33.79000000000001,33.78999999999999,33.790000000000006,33.790000000000006,33.79000000000001,8.702335715267317e-15,7.57,0.27,4.085,4.25,0.27,2.713166968691754
1 -> 2,0.5568760000000003,0.5568759999999998,0.556876,0.5568760000000001,0.5568760000000003,2.0014830212433605e-16,61.0,61.0,61.0,61.0,61.0,0.0,33.79000000000001,33.78999999999999,33.790000000000006,33.790000000000006,33.79000000000001,8.702335715267317e-15,7.57,0.27,4.085,4.25,0.27,2.713166968691754
1 -> 2,0.5568760000000003,0.5568759999999998,0.556876,0.5568760000000001,0.5568760000000003,2.0014830212433605e-16,61.0,61.0,61.0,61.0,61.0,0.0,33.79000000000001,33.78999999999999,33.790000000000006,33.790000000000006,33.79000000000001,8.702335715267317e-15,-3.38,-18.52,-10.754999999999999,-10.56,-18.52,5.667686917958684
1 -> 2,0.5568760000000003,0.5568759999999998,0.556876,0.5568760000000001,0.5568760000000003,2.0014830212433605e-16,61.0,61.0,61.0,61.0,61.0,0.0,33.79000000000001,33.78999999999999,33.790000000000006,33.790000000000006,33.79000000000001,8.702335715267317e-15,-3.38,-18.52,-10.754999999999999,-10.56,-18.52,5.667686917958684
1 -> 2,0.5568760000000003,0.5568759999999998,0.556876,0.5568760000000001,0.5568760000000003,2.0014830212433605e-16,61.0,61.0,61.0,61.0,61.0,0.0,33.79000000000001,33.78999999999999,33.790000000000006,33.790000000000006,33.79000000000001,8.702335715267317e-15,-23.13,-26.85,-25.2725,-25.555,-26.85,1.407380101465131
1 -> 2,0.5568760000000003,0.5568759999999998,0.556876,0.5568760000000001,0.5568760000000003,2.0014830212433605e-16,61.0,61.0,61.0,61.0,61.0,0.0,33.79000000000001,33.78999999999999,33.790000000000006,33.790000000000006,33.79000000000001,8.702335715267317e-15,-23.13,-26.85,-25.2725,-25.555,-26.85,1.407380101465131
1 -> 2,0.5581560000000002,0.5581559999999998,0.558156,0.5581560000000001,0.5581560000000002,2.0014830212433605e-16,61.0,61.0,61.0,61.0,61.0,0.0,33.79000000000001,33.78999999999999,33.790000000000006,33.790000000000006,33.79000000000001,8.702335715267317e-15,1.05,-20.65,-10.2275,-10.655000000000001,-20.65,8.127516148861226
1 -> 2,0.5581560000000002,0.5581559999999998,0.558156,0.5581560000000001,0.5581560000000002,2.0014830212433605e-16,61.0,61.0,61.0,61.0,61.0,0.0,33.79000000000001,33.78999999999999,33.790000000000006,33.790000000000006,33.79000000000001,8.702335715267317e-15,1.05,-20.65,-10.2275,-10.655000000000001,-20.65,8.127516148861226
1 -> 2,0.5581560000000002,0.5581559999999998,0.558156,0.5581560000000001,0.5581560000000002,2.0014830212433605e-16,61.0,61.0,61.0,61.0,61.0,0.0,33.79000000000001,33.78999999999999,33.790000000000006,33.790000000000006,33.79000000000001,8.702335715267317e-15,26.15,8.81,18.122500000000002,18.765,8.81,6.504180866950118
1 -> 2,0.5581560000000002,0.5581559999999998,0.558156,0.5581560000000001,0.5581560000000002,2.0014830212433605e-16,61.0,61.0,61.0,61.0,61.0,0.0,33.79000000000001,33.78999999999999,33.790000000000006,33.790000000000006,33.79000000000001,8.702335715267317e-15,26.15,8.81,18.122500000000002,18.765,8.81,6.504180866950118
1 -> 2,0.5581560000000002,0.5581559999999998,0.558156,0.5581560000000001,0.5581560000000002,2.0014830212433605e-16,61.0,61.0,61.0,61.0,61.0,0.0,33.79000000000001,33.78999999999999,33.790000000000006,33.790000000000006,33.79000000000001,8.702335715267317e-15,30.34,28.96,29.637500000000003,29.625,28.96,0.6443746968961452
1 -> 2,0.5581560000000002,0.5581559999999998,0.558156,0.5581560000000001,0.5581560000000002,2.0014830212433605e-16,61.0,61.0,61.0,61.0,61.0,0.0,33.79000000000001,33.78999999999999,33.790000000000006,33.790000000000006,33.79000000000001,8.702335715267317e-15,30.34,28.96,29.637500000000003,29.625,28.96,0.6443746968961452
1 -> 2,0.5581560000000002,0.5581559999999998,0.558156,0.5581560000000001,0.5581560000000002,2.0014830212433605e-16,61.0,61.0,61.0,61.0,61.0,0.0,33.79000000000001,33.78999999999999,33.790000000000006,33.790000000000006,33.79000000000001,8.702335715267317e-15,26.93,20.73,23.68,23.53,20.73,2.3284222125722813
1 -> 2,0.5581560000000002,0.5581559999999998,0.558156,0.5581560000000001,0.5581560000000002,2.0014830212433605e-16,61.0,61.0,61.0,61.0,61.0,0.0,33.79000000000001,33.78999999999999,33.790000000000006,33.790000000000006,33.79000000000001,8.702335715267317e-15,26.93,20.73,23.68,23.53,20.73,2.3284222125722813
1 -> 2,0.5594360000000003,0.5594359999999999,0.559436,0.5594360000000002,0.5594360000000003,1.6653345369377348e-16,61.0,61.0,61.0,61.0,61.0,0.0,33.81000000000002,33.80999999999998,33.81,33.81,33.81000000000002,1.6280579355608324e-14,19.61,18.84,19.1,18.975,18.84,0.30553232234904354
1 -> 2,0.5594360000000003,0.5594359999999999,0.559436,0.5594360000000002,0.5594360000000003,1.6653345369377348e-16,61.0,61.0,61.0,61.0,61.0,0.0,33.81000000000002,33.80999999999998,33.81,33.81,33.81000000000002,1.6280579355608324e-14,19.61,18.84,19.1,18.975,18.84,0.30553232234904354
1 -> 2,0.5594360000000003,0.5594359999999999,0.559436,0.5594360000000002,0.5594360000000003,1.6653345369377348e-16,61.0,61.0,61.0,61.0,61.0,0.0,33.81000000000002,33.80999999999998,33.81,33.81,33.81000000000002,1.6280579355608324e-14,18.69,15.98,17.5675,17.799999999999997,15.98,1.0338610883479462
1 -> 2,0.5594360000000003,0.5594359999999999,0.559436,0.5594360000000002,0.5594360000000003,1.6653345369377348e-16,61.0,61.0,61.0,61.0,61.0,0.0,33.81000000000002,33.80999999999998,33.81,33.81,33.81000000000002,1.6280579355608324e-14,18.69,15.98,17.5675,17.799999999999997,15.98,1.0338610883479462
1 -> 2,0.5594360000000003,0.5594359999999999,0.559436,0.5594360000000002,0.5594360000000003,1.6653345369377348e-16,61.0,61.0,61.0,61.0,61.0,0.0,33.81000000000002,33.80999999999998,33.81,33.81,33.81000000000002,1.6280579355608324e-14,14.11,6.66,10.474999999999998,10.565000000000001,6.66,2.7831681587715824
1 -> 2,0.5594360000000003,0.5594359999999999,0.559436,0.5594360000000002,0.5594360000000003,1.6653345369377348e-16,61.0,61.0,61.0,61.0,61.0,0.0,33.81000000000002,33.80999999999998,33.81,33.81,33.81000000000002,1.6280579355608324e-14,14.11,6.66,10.474999999999998,10.565000000000001,6.66,2.7831681587715824
1 -> 2,0.5594360000000003,0.5594359999999999,0.559436,0.5594360000000002,0.5594360000000003,1.6653345369377348e-16,61.0,61.0,61.0,61.0,61.0,0.0,33.81000000000002,33.80999999999998,33.81,33.81,33.81000000000002,1.6280579355608324e-14,3.97,-4.98,-0.36750000000000016,-0.22999999999999998,-4.98,3.3334919753915715
1 -> 2,0.5594360000000003,0.5594359999999999,0.559436,0.5594360000000002,0.5594360000000003,1.6653345369377348e-16,61.0,61.0,61.0,61.0,61.0,0.0,33.81000000000002,33.80999999999998,33.81,33.81,33.81000000000002,1.6280579355608324e-14,3.97,-4.98,-0.36750000000000016,-0.22999999999999998,-4.98,3.3334919753915715
1 -> 2,0.5607170000000002,0.5607169999999999,0.5607170000000001,0.5607170000000001,0.5607170000000002,1.3597399555105182e-16,61.0,61.0,61.0,61.0,61.0,0.0,33.81000000000002,33.80999999999998,33.81,33.81,33.81000000000002,1.6280579355608324e-14,-8.77,-22.06,-15.384999999999998,-15.355,-22.06,4.971159321526518
1 -> 2,0.5607170000000002,0.5607169999999999,0.5607170000000001,0.5607170000000001,0.5607170000000002,1.3597399555105182e-16,61.0,61.0,61.0,61.0,61.0,0.0,33.81000000000002,33.80999999999998,33.81,33.81,33.81000000000002,1.6280579355608324e-14,-8.77,-22.06,-15.384999999999998,-15.355,-22.06,4.971159321526518
1 -> 2,0.5607170000000002,0.5607169999999999,0.5607170000000001,0.5607170000000001,0.5607170000000002,1.3597399555105182e-16,61.0,61.0,61.0,61.0,61.0,0.0,33.81000000000002,33.80999999999998,33.81,33.81,33.81000000000002,1.6280579355608324e-14,-23.96,-27.5,-26.035000000000004,-26.34,-27.5,1.387776999377061
1 -> 2,0.5607170000000002,0.5607169999999999,0.5607170000000001,0.5607170000000001,0.5607170000000002,1.3597399555105182e-16,61.0,61.0,61.0,61.0,61.0,0.0,33.81000000000002,33.80999999999998,33.81,33.81,33.81000000000002,1.6280579355608324e-14,-23.96,-27.5,-26.035000000000004,-26.34,-27.5,1.387776999377061
1 -> 2,0.5607170000000002,0.5607169999999999,0.5607170000000001,0.5607170000000001,0.5607170000000002,1.3597399555105182e-16,61.0,61.0,61.0,61.0,61.0,0.0,33.81000000000002,33.80999999999998,33.81,33.81,33.81000000000002,1.6280579355608324e-14,6.72,-18.28,-6.05,-6.32,-18.28,9.358009938015668
1 -> 2,0.5607170000000002,0.5607169999999999,0.5607170000000001,0.5607170000000001,0.5607170000000002,1.3597399555105182e-16,61.0,61.0,61.0,61.0,61.0,0.0,33.81000000000002,33.80999999999998,33.81,33.81,33.81000000000002,1.6280579355608324e-14,6.72,-18.28,-6.05,-6.32,-18.28,9.358009938015668
1 -> 2,0.5607170000000002,0.5607169999999999,0.5607170000000001,0.5607170000000001,0.5607170000000002,1.3597399555105182e-16,61.0,61.0,61.0,61.0,61.0,0.0,33.81000000000002,33.80999999999998,33.81,33.81,33.81000000000002,1.6280579355608324e-14,30.08,14.66,23.127499999999998,23.884999999999998,14.66,5.797514014644552
1 -> 2,0.5607170000000002,0.5607169999999999,0.5607170000000001,0.5607170000000001,0.5607170000000002,1.3597399555105182e-16,61.0,61.0,61.0,61.0,61.0,0.0,33.81000000000002,33.80999999999998,33.81,33.81,33.81000000000002,1.6280579355608324e-14,30.08,14.66,23.127499999999998,23.884999999999998,14.66,5.797514014644552
1 -> 2,0.5594360000000003,0.5594359999999999,0.559436,0.5594360000000002,0.5594360000000003,1.6653345369377348e-16,61.0,61.0,61.0,61.0,61.0,0.0,33.81000000000002,33.80999999999998,33.81,33.81,33.81000000000002,1.6280579355608324e-14,33.18,31.98,32.6075,32.635000000000005,31.98,0.4937294299512639
1 -> 2,0.5594360000000003,0.5594359999999999,0.559436,0.5594360000000002,0.5594360000000003,1.6653345369377348e-16,61.0,61.0,61.0,61.0,61.0,0.0,33.81000000000002,33.80999999999998,33.81,33.81,33.81000000000002,1.6280579355608324e-14,33.18,31.98,32.6075,32.635000000000005,31.98,0.4937294299512639
1 -> 2,0.5594360000000003,0.5594359999999999,0.559436,0.5594360000000002,0.5594360000000003,1.6653345369377348e-16,61.0,61.0,61.0,61.0,61.0,0.0,33.81000000000002,33.80999999999998,33.81,33.81,33.81000000000002,1.6280579355608324e-14,30.45,25.52,27.924999999999997,27.865000000000002,25.52,1.8435631261228893
1 -> 2,0.5594360000000003,0.5594359999999999,0.559436,0.5594360000000002,0.5594360000000003,1.6653345369377348e-16,61.0,61.0,61.0,61.0,61.0,0.0,33.81000000000002,33.80999999999998,33.81,33.81,33.81000000000002,1.6280579355608324e-14,30.45,25.52,27.924999999999997,27.865000000000002,25.52,1.8435631261228893
1 -> 2,0.5594360000000003,0.5594359999999999,0.559436,0.5594360000000002,0.5594360000000003,1.6653345369377348e-16,61.0,61.0,61.0,61.0,61.0,0.0,33.81000000000002,33.80999999999998,33.81,33.81,33.81000000000002,1.6280579355608324e-14,24.22,20.53,22.4175,22.46,20.53,1.3703535127842006
1 -> 2,0.5594360000000003,0.5594359999999999,0.559436,0.5594360000000002,0.5594360000000003,1.6653345369377348e-16,61.0,61.0,61.0,61.0,61.0,0.0,33.81000000000002,33.80999999999998,33.81,33.81,33.81000000000002,1.6280579355608324e-14,24.22,20.53,22.4175,22.46,20.53,1.3703535127842006
1 -> 2,0.5594360000000003,0.5594359999999999,0.559436,0.5594360000000002,0.5594360000000003,1.6653345369377348e-16,61.0,61.0,61.0,61.0,61.0,0.0,33.81000000000002,33.80999999999998,33.81,33.81,33.81000000000002,1.6280579355608324e-14,18.87,10.89,15.145,15.41,10.89,2.985753673697815
1 -> 2,0.5594360000000003,0.5594359999999999,0.559436,0.5594360000000002,0.5594360000000003,1.6653345369377348e-16,61.0,61.0,61.0,61.0,61.0,0.0,33.81000000000002,33.80999999999998,33.81,33.81,33.81000000000002,1.6280579355608324e-14,18.87,10.89,15.145,15.41,10.89,2.985753673697815
1 -> 2,0.5619970000000002,0.5619969999999999,0.5619970000000001,0.5619970000000001,0.5619970000000002,1.3597399555105182e-16,61.0,61.0,61.0,61.0,61.0,0.0,33.81000000000002,33.80999999999998,33.81,33.81,33.81000000000002,1.6280579355608324e-14,7.28,-4.36,1.4599999999999997,1.46,-4.36,4.342464737910949
1 -> 2,0.5619970000000002,0.5619969999999999,0.5619970000000001,0.5619970000000001,0.5619970000000002,1.3597399555105182e-16,61.0,61.0,61.0,61.0,61.0,0.0,33.81000000000002,33.80999999999998,33.81,33.81,33.81000000000002,1.6280579355608324e-14,7.28,-4.36,1.4599999999999997,1.46,-4.36,4.342464737910949
1 -> 2,0.5619970000000002,0.5619969999999999,0.5619970000000001,0.5619970000000001,0.5619970000000002,1.3597399555105182e-16,61.0,61.0,61.0,61.0,61.0,0.0,33.81000000000002,33.80999999999998,33.81,33.81,33.81000000000002,1.6280579355608324e-14,-8.18,-20.73,-14.282500000000002,-14.110000000000001,-20.73,4.673261040215922
1 -> 2,0.5619970000000002,0.5619969999999999,0.5619970000000001,0.5619970000000001,0.5619970000000002,1.3597399555105182e-16,61.0,61.0,61.0,61.0,61.0,0.0,33.81000000000002,33.80999999999998,33.81,33.81,33.81000000000002,1.6280579355608324e-14,-8.18,-20.73,-14.282500000000002,-14.110000000000001,-20.73,4.673261040215922
1 -> 2,0.5619970000000002,0.5619969999999999,0.5619970000000001,0.5619970000000001,0.5619970000000002,1.3597399555105182e-16,61.0,61.0,61.0,61.0,61.0,0.0,33.81000000000002,33.80999999999998,33.81,33.81,33.81000000000002,1.6280579355608324e-14,-25.83,-42.2,-34.1175,-34.22,-42.2,6.124709686997418
1 -> 2,0.5619970000000002,0.5619969999999999,0.5619970000000001,0.5619970000000001,0.5619970000000002,1.3597399555105182e-16,61.0,61.0,61.0,61.0,61.0,0.0,33.81000000000002,33.80999999999998,33.81,33.81,33.81000000000002,1.6280579355608324e-14,-25.83,-42.2,-34.1175,-34.22,-42.2,6.124709686997418
1 -> 2,0.5619970000000002,0.5619969999999999,0.5619970000000001,0.5619970000000001,0.5619970000000002,1.3597399555105182e-16,61.0,61.0,61.0,61.0,61.0,0.0,33.81000000000002,33.80999999999998,33.81,33.81,33.81000000000002,1.6280579355608324e-14,-42.06,-47.56,-45.4775,-46.144999999999996,-47.56,2.0592277071756775
1 -> 2,0.5619970000000002,0.5619969999999999,0.5619970000000001,0.5619970000000001,0.5619970000000002,1.3597399555105182e-16,61.0,61.0,61.0,61.0,61.0,0.0,33.81000000000002,33.80999999999998,33.81,33.81,33.81000000000002,1.6280579355608324e-14,-42.06,-47.56,-45.4775,-46.144999999999996,-47.56,2.0592277071756775
1 -> 2,0.5594360000000003,0.5594359999999999,0.559436,0.5594360000000002,0.5594360000000003,1.6653345369377348e-16,58.0,58.0,58.0,58.0,58.0,0.0,33.79000000000001,33.78999999999999,33.790000000000006,33.790000000000006,33.79000000000001,8.702335715267317e-15,-7.85,-35.2,-21.665,-21.805,-35.2,10.229272945815847
1 -> 2,0.5594360000000003,0.5594359999999999,0.559436,0.5594360000000002,0.5594360000000003,1.6653345369377348e-16,58.0,58.0,58.0,58.0,58.0,0.0,33.79000000000001,33.78999999999999,33.790000000000006,33.790000000000006,33.79000000000001,8.702335715267317e-15,-7.85,-35.2,-21.665,-21.805,-35.2,10.229272945815847
1 -> 2,0.5594360000000003,0.5594359999999999,0.559436,0.5594360000000002,0.5594360000000003,1.6653345369377348e-16,58.0,58.0,58.0,58.0,58.0,0.0,33.79000000000001,33.78999999999999,33.790000000000006,33.790000000000006,33.79000000000001,8.702335715267317e-15,18.31,0.52,10.0375,10.66,0.52,6.657989092060755
1 -> 2,0.5594360000000003,0.5594359999999999,0.559436,0.5594360000000002,0.5594360000000003,1.6653345369377348e-16,58.0,58.0,58.0,58.0,58.0,0.0,33.79000000000001,33.78999999999999,33.790000000000006,33.790000000000006,33.79000000000001,8.702335715267317e-15,18.31,0.52,10.0375,10.66,0.52,6.657989092060755
1 -> 2,0.5594360000000003,0.5594359999999999,0.559436,0.5594360000000002,0.5594360000000003,1.6653345369377348e-16,58.0,58.0,58.0,58.0,58.0,0.0,33.79000000000001,33.78999999999999,33.790000000000006,33.790000000000006,33.79000000000001,8.702335715267317e-15,24.42,21.75,23.41,23.735,21.75,0.9997749746818034
1 -> 2,0.5594360000000003,0.5594359999999999,0.559436,0.5594360000000002,0.5594360000000003,1.6653345369377348e-16,58.0,58.0,58.0,58.0,58.0,0.0,33.79000000000001,33.78999999999999,33.790000000000006,33.790000000000006,33.79000000000001,8.702335715267317e-15,24.42,21.75,23.41,23.735,21.75,0.9997749746818034
1 -> 2,0.5594360000000003,0.5594359999999999,0.559436,0.5594360000000002,0.5594360000000003,1.6653345369377348e-16,58.0,58.0,58.0,58.0,58.0,0.0,33.79000000000001,33.78999999999999,33.790000000000006,33.790000000000006,33.79000000000001,8.702335715267317e-15,21.9,16.4,18.935000000000002,18.72,16.4,2.077865491315547
1 -> 2,0.5594360000000003,0.5594359999999999,0.559436,0.5594360000000002,0.5594360000000003,1.6653345369377348e-16,58.0,58.0,58.0,58.0,58.0,0.0,33.79000000000001,33.78999999999999,33.790000000000006,33.790000000000006,33.79000000000001,8.702335715267317e-15,21.9,16.4,18.935000000000002,18.72,16.4,2.077865491315547
1 -> 2,0.5619970000000002,0.5619969999999999,0.5619970000000001,0.5619970000000001,0.5619970000000002,1.3597399555105182e-16,58.0,58.0,58.0,58.0,58.0,0.0,33.79000000000001,33.78999999999999,33.790000000000006,33.790000000000006,33.79000000000001,8.702335715267317e-15,15.79,14.4,15.2625,15.43,14.4,0.531383806678374
1 -> 2,0.5619970000000002,0.5619969999999999,0.5619970000000001,0.5619970000000001,0.5619970000000002,1.3597399555105182e-16,58.0,58.0,58.0,58.0,58.0,0.0,33.79000000000001,33.78999999999999,33.790000000000006,33.790000000000006,33.79000000000001,8.702335715267317e-15,15.79,14.4,15.2625,15.43,14.4,0.531383806678374
1 -> 2,0.5619970000000002,0.5619969999999999,0.5619970000000001,0.5619970000000001,0.5619970000000002,1.3597399555105182e-16,58.0,58.0,58.0,58.0,58.0,0.0,33.79000000000001,33.78999999999999,33.790000000000006,33.790000000000006,33.79000000000001,8.702335715267317e-15,12.79,5.76,9.315,9.355,5.76,2.632399095881929
1 -> 2,0.5619970000000002,0.5619969999999999,0.5619970000000001,0.5619970000000001,0.5619970000000002,1.3597399555105182e-16,58.0,58.0,58.0,58.0,58.0,0.0,33.79000000000001,33.78999999999999,33.790000000000006,33.790000000000006,33.79000000000001,8.702335715267317e-15,12.79,5.76,9.315,9.355,5.76,2.632399095881929
1 -> 2,0.5619970000000002,0.5619969999999999,0.5619970000000001,0.5619970000000001,0.5619970000000002,1.3597399555105182e-16,58.0,58.0,58.0,58.0,58.0,0.0,33.79000000000001,33.78999999999999,33.790000000000006,33.790000000000006,33.79000000000001,8.702335715267317e-15,3.61,-2.86,0.4800000000000001,0.5850000000000001,-2.86,2.4040070715370203
1 -> 2,0.5619970000000002,0.5619969999999999,0.5619970000000001,0.5619970000000001,0.5619970000000002,1.3597399555105182e-16,58.0,58.0,58.0,58.0,58.0,0.0,33.79000000000001,33.78999999999999,33.790000000000006,33.790000000000006,33.79000000000001,8.702335715267317e-15,3.61,-2.86,0.4800000000000001,0.5850000000000001,-2.86,2.4040070715370203
1 -> 2,0.5619970000000002,0.5619969999999999,0.5619970000000001,0.5619970000000001,0.5619970000000002,1.3597399555105182e-16,58.0,58.0,58.0,58.0,58.0,0.0,33.79000000000001,33.78999999999999,33.790000000000006,33.790000000000006,33.79000000000001,8.702335715267317e-15,-5.8,-18.79,-11.945,-11.594999999999999,-18.79,4.85595768103471
1 -> 2,0.5619970000000002,0.5619969999999999,0.5619970000000001,0.5619970000000001,0.5619970000000002,1.3597399555105182e-16,58.0,58.0,58.0,58.0,58.0,0.0,33.79000000000001,33.78999999999999,33.790000000000006,33.790000000000006,33.79000000000001,8.702335715267317e-15,-5.8,-18.79,-11.945,-11.594999999999999,-18.79,4.85595768103471
1 -> 2,0.5607170000000002,0.5607169999999999,0.5607170000000001,0.5607170000000001,0.5607170000000002,1.3597399555105182e-16,58.0,58.0,58.0,58.0,58.0,0.0,33.79000000000001,33.78999999999999,33.790000000000006,33.790000000000006,33.79000000000001,8.702335715267317e-15,-24.22,-36.17,-30.912499999999998,-31.630000000000003,-36.17,4.544768283422161
1 -> 2,0.5607170000000002,0.5607169999999999,0.5607170000000001,0.5607170000000001,0.5607170000000002,1.3597399555105182e-16,58.0,58.0,58.0,58.0,58.0,0.0,33.79000000000001,33.78999999999999,33.790000000000006,33.790000000000006,33.79000000000001,8.702335715267317e-15,-24.22,-36.17,-30.912499999999998,-31.630000000000003,-36.17,4.544768283422161
1 -> 2,0.5607170000000002,0.5607169999999999,0.5607170000000001,0.5607170000000001,0.5607170000000002,1.3597399555105182e-16,58.0,58.0,58.0,58.0,58.0,0.0,33.79000000000001,33.78999999999999,33.790000000000006,33.790000000000006,33.79000000000001,8.702335715267317e-15,-18.81,-35.93,-28.5675,-29.765,-35.93,6.516626331929736
1 -> 2,0.5607170000000002,0.5607169999999999,0.5607170000000001,0.5607170000000001,0.5607170000000002,1.3597399555105182e-16,58.0,58.0,58.0,58.0,58.0,0.0,33.79000000000001,33.78999999999999,33.790000000000006,33.790000000000006,33.79000000000001,8.702335715267317e-15,-18.81,-35.93,-28.5675,-29.765,-35.93,6.516626331929736
1 -> 2,0.5607170000000002,0.5607169999999999,0.5607170000000001,0.5607170000000001,0.5607170000000002,1.3597399555105182e-16,58.0,58.0,58.0,58.0,58.0,0.0,33.79000000000001,33.78999999999999,33.790000000000006,33.790000000000006,33.79000000000001,8.702335715267317e-15,15.93,-9.69,3.5524999999999998,3.985,-9.69,9.579233724573172
1 -> 2,0.5607170000000002,0.5607169999999999,0.5607170000000001,0.5607170000000001,0.5607170000000002,1.3597399555105182e-16,58.0,58.0,58.0,58.0,58.0,0.0,33.79000000000001,33.78999999999999,33.790000000000006,33.790000000000006,33.79000000000001,8.702335715267317e-15,15.93,-9.69,3.5524999999999998,3.985,-9.69,9.579233724573172
1 -> 2,0.5607170000000002,0.5607169999999999,0.5607170000000001,0.5607170000000001,0.5607170000000002,1.3597399555105182e-16,58.0,58.0,58.0,58.0,58.0,0.0,33.79000000000001,33.78999999999999,33.790000000000006,33.790000000000006,33.79000000000001,8.702335715267317e-15,29.54,21.99,26.655,27.545,21.99,2.9482918783594005
1 -> 2,0.5607170000000002,0.5607169999999999,0.5607170000000001,0.5607170000000001,0.5607170000000002,1.3597399555105182e-16,58.0,58.0,58.0,58.0,58.0,0.0,33.79000000000001,33.78999999999999,33.790000000000006,33.790000000000006,33.79000000000001,8.702335715267317e-15,29.54,21.99,26.655,27.545,21.99,2.9482918783594005
1 -> 2,0.5607170000000002,0.5607169999999999,0.5607170000000001,0.5607170000000001,0.5607170000000002,1.3597399555105182e-16,58.0,58.0,58.0,58.0,58.0,0.0,33.79000000000001,33.78999999999999,33.790000000000006,33.790000000000006,33.79000000000001,8.702335715267317e-15,28.85,22.71,25.9125,26.045,22.71,2.3109562414723475
1 -> 2,0.5607170000000002,0.5607169999999999,0.5607170000000001,0.5607170000000001,0.5607170000000002,1.3597399555105182e-16,58.0,58.0,58.0,58.0,58.0,0.0,33.79000000000001,33.78999999999999,33.790000000000006,33.790000000000006,33.79000000000001,8.702335715267317e-15,28.85,22.71,25.9125,26.045,22.71,2.3109562414723475
1 -> 2,0.5607170000000002,0.5607169999999999,0.5607170000000001,0.5607170000000001,0.5607170000000002,1.3597399555105182e-16,58.0,58.0,58.0,58.0,58.0,0.0,33.79000000000001,33.78999999999999,33.790000000000006,33.790000000000006,33.79000000000001,8.702335715267317e-15,20.8,17.89,19.14,18.935000000000002,17.89,1.0972921215428462
1 -> 2,0.5607170000000002,0.5607169999999999,0.5607170000000001,0.5607170000000001,0.5607170000000002,1.3597399555105182e-16,58.0,58.0,58.0,58.0,58.0,0.0,33.79000000000001,33.78999999999999,33.790000000000006,33.790000000000006,33.79000000000001,8.702335715267317e-15,20.8,17.89,19.14,18.935000000000002,17.89,1.0972921215428462
1 -> 2,0.5607170000000002,0.5607169999999999,0.5607170000000001,0.5607170000000001,0.5607170000000002,1.3597399555105182e-16,58.0,58.0,58.0,58.0,58.0,0.0,33.79000000000001,33.78999999999999,33.790000000000006,33.790000000000006,33.79000000000001,8.702335715267317e-15,17.37,14.18,15.957500000000001,16.14,14.18,1.202401243345998
1 -> 2,0.5607170000000002,0.5607169999999999,0.5607170000000001,0.5607170000000001,0.5607170000000002,1.3597399555105182e-16,58.0,58.0,58.0,58.0,58.0,0.0,33.79000000000001,33.78999999999999,33.790000000000006,33.790000000000006,33.79000000000001,8.702335715267317e-15,17.37,14.18,15.957500000000001,16.14,14.18,1.202401243345998
1 -> 2,0.5607170000000002,0.5607169999999999,0.5607170000000001,0.5607170000000001,0.5607170000000002,1.3597399555105182e-16,58.0,58.0,58.0,58.0,58.0,0.0,33.79000000000001,33.78999999999999,33.790000000000006,33.790000000000006,33.79000000000001,8.702335715267317e-15,12.5,7.38,9.912500000000001,9.885,7.38,1.9086824644240856
1 -> 2,0.5607170000000002,0.5607169999999999,0.5607170000000001,0.5607170000000001,0.5607170000000002,1.3597399555105182e-16,58.0,58.0,58.0,58.0,58.0,0.0,33.79000000000001,33.78999999999999,33.790000000000006,33.790000000000006,33.79000000000001,8.702335715267317e-15,12.5,7.38,9.912500000000001,9.885,7.38,1.9086824644240856
1 -> 2,0.5607170000000002,0.5607169999999999,0.5607170000000001,0.5607170000000001,0.5607170000000002,1.3597399555105182e-16,58.0,58.0,58.0,58.0,58.0,0.0,33.79000000000001,33.78999999999999,33.790000000000006,33.790000000000006,33.79000000000001,8.702335715267317e-15,5.62,-2.56,1.8499999999999996,2.17,-2.56,3.0601062073071907
1 -> 2,0.5607170000000002,0.5607169999999999,0.5607170000000001,0.5607170000000001,0.5607170000000002,1.3597399555105182e-16,58.0,58.0,58.0,58.0,58.0,0.0,33.79000000000001,33.78999999999999,33.790000000000006,33.790000000000006,33.79000000000001,8.702335715267317e-15,5.62,-2.56,1.8499999999999996,2.17,-2.56,3.0601062073071907
1 -> 2,0.5607170000000002,0.5607169999999999,0.5607170000000001,0.5607170000000001,0.5607170000000002,1.3597399555105182e-16,58.0,58.0,58.0,58.0,58.0,0.0,33.79000000000001,33.78999999999999,33.790000000000006,33.790000000000006,33.79000000000001,8.702335715267317e-15,-6.67,-21.72,-14.0825,-13.969999999999999,-21.72,5.623870442142137
1 -> 2,0.5607170000000002,0.5607169999999999,0.5607170000000001,0.5607170000000001,0.5607170000000002,1.3597399555105182e-16,58.0,58.0,58.0,58.0,58.0,0.0,33.79000000000001,33.78999999999999,33.790000000000006,33.790000000000006,33.79000000000001,8.702335715267317e-15,-6.67,-21.72,-14.0825,-13.969999999999999,-21.72,5.623870442142137
1 -> 2,0.5607170000000002,0.5607169999999999,0.5607170000000001,0.5607170000000001,0.5607170000000002,1.3597399555105182e-16,58.0,58.0,58.0,58.0,58.0,0.0,33.79000000000001,33.78999999999999,33.790000000000006,33.790000000000006,33.79000000000001,8.702335715267317e-15,-26.35,-30.93,-29.122500000000002,-29.605,-30.93,1.690464063504456
1 -> 2,0.5607170000000002,0.5607169999999999,0.5607170000000001,0.5607170000000001,0.5607170000000002,1.3597399555105182e-16,58.0,58.0,58.0,58.0,58.0,0.0,33.79000000000001,33.78999999999999,33.790000000000006,33.790000000000006,33.79000000000001,8.702335715267317e-15,-26.35,-30.93,-29.122500000000002,-29.605,-30.93,1.690464063504456
1 -> 2,0.5607170000000002,0.5607169999999999,0.5607170000000001,0.5607170000000001,0.5607170000000002,1.3597399555105182e-16,58.0,58.0,58.0,58.0,58.0,0.0,33.79000000000001,33.78999999999999,33.790000000000006,33.790000000000006,33.79000000000001,8.702335715267317e-15,-2.34,-25.35,-14.3275,-14.81,-25.35,8.628752444588963
1 -> 2,0.5607170000000002,0.5607169999999999,0.5607170000000001,0.5607170000000001,0.5607170000000002,1.3597399555105182e-16,58.0,58.0,58.0,58.0,58.0,0.0,33.79000000000001,33.78999999999999,33.790000000000006,33.790000000000006,33.79000000000001,8.702335715267317e-15,-2.34,-25.35,-14.3275,-14.81,-25.35,8.628752444588963
1 -> 2,0.5632770000000002,0.5632769999999999,0.563277,0.5632770000000001,0.5632770000000002,1.6653345369377348e-16,58.0,58.0,58.0,58.0,58.0,0.0,33.79000000000001,33.78999999999999,33.790000000000006,33.790000000000006,33.79000000000001,8.702335715267317e-15,22.1,5.62,14.5425,15.225,5.62,6.179168127668967
1 -> 2,0.5632770000000002,0.5632769999999999,0.563277,0.5632770000000001,0.5632770000000002,1.6653345369377348e-16,58.0,58.0,58.0,58.0,58.0,0.0,33.79000000000001,33.78999999999999,33.790000000000006,33.790000000000006,33.79000000000001,8.702335715267317e-15,22.1,5.62,14.5425,15.225,5.62,6.179168127668967
1 -> 2,0.5632770000000002,0.5632769999999999,0.563277,0.5632770000000001,0.5632770000000002,1.6653345369377348e-16,58.0,58.0,58.0,58.0,58.0,0.0,33.79000000000001,33.78999999999999,33.790000000000006,33.790000000000006,33.79000000000001,8.702335715267317e-15,27.11,24.93,26.322499999999998,26.625,24.93,0.8288961032602337
1 -> 2,0.5632770000000002,0.5632769999999999,0.563277,0.5632770000000001,0.5632770000000002,1.6653345369377348e-16,58.0,58.0,58.0,58.0,58.0,0.0,33.79000000000001,33.78999999999999,33.790000000000006,33.790000000000006,33.79000000000001,8.702335715267317e-15,27.11,24.93,26.322499999999998,26.625,24.93,0.8288961032602337
1 -> 2,0.5632770000000002,0.5632769999999999,0.563277,0.5632770000000001,0.5632770000000002,1.6653345369377348e-16,58.0,58.0,58.0,58.0,58.0,0.0,33.79000000000001,33.78999999999999,33.790000000000006,33.790000000000006,33.79000000000001,8.702335715267317e-15,25.52,20.95,23.205000000000002,23.175,20.95,1.7133373865062305
1 -> 2,0.5632770000000002,0.5632769999999999,0.563277,0.5632770000000001,0.5632770000000002,1.6653345369377348e-16,58.0,58.0,58.0,58.0,58.0,0.0,33.79000000000001,33.78999999999999,33.790000000000006,33.790000000000006,33.79000000000001,8.702335715267317e-15,25.52,20.95,23.205000000000002,23.175,20.95,1.7133373865062305
1 -> 2,0.5632770000000002,0.5632769999999999,0.563277,0.5632770000000001,0.5632770000000002,1.6653345369377348e-16,58.0,58.0,58.0,58.0,58.0,0.0,33.79000000000001,33.78999999999999,33.790000000000006,33.790000000000006,33.79000000000001,8.702335715267317e-15,19.83,17.68,18.7025,18.65,17.68,0.796880637234962
1 -> 2,0.5632770000000002,0.5632769999999999,0.563277,0.5632770000000001,0.5632770000000002,1.6653345369377348e-16,58.0,58.0,58.0,58.0,58.0,0.0,33.79000000000001,33.78999999999999,33.790000000000006,33.790000000000006,33.79000000000001,8.702335715267317e-15,19.83,17.68,18.7025,18.65,17.68,0.796880637234962
1 -> 2,0.5619970000000002,0.5619969999999999,0.5619970000000001,0.5619970000000001,0.5619970000000002,1.3597399555105182e-16,58.0,58.0,58.0,58.0,58.0,0.0,33.79000000000001,33.78999999999999,33.790000000000006,33.790000000000006,33.79000000000001,8.702335715267317e-15,16.94,12.96,15.1225,15.295,12.96,1.4914150160166686
1 -> 2,0.5619970000000002,0.5619969999999999,0.5619970000000001,0.5619970000000001,0.5619970000000002,1.3597399555105182e-16,58.0,58.0,58.0,58.0,58.0,0.0,33.79000000000001,33.78999999999999,33.790000000000006,33.790000000000006,33.79000000000001,8.702335715267317e-15,16.94,12.96,15.1225,15.295,12.96,1.4914150160166686
1 -> 2,0.5619970000000002,0.5619969999999999,0.5619970000000001,0.5619970000000001,0.5619970000000002,1.3597399555105182e-16,58.0,58.0,58.0,58.0,58.0,0.0,33.79000000000001,33.78999999999999,33.790000000000006,33.790000000000006,33.79000000000001,8.702335715267317e-15,10.94,3.43,7.272499999999999,7.359999999999999,3.43,2.8020472426424217
1 -> 2,0.5619970000000002,0.5619969999999999,0.5619970000000001,0.5619970000000001,0.5619970000000002,1.3597399555105182e-16,58.0,58.0,58.0,58.0,58.0,0.0,33.79000000000001,33.78999999999999,33.790000000000006,33.790000000000006,33.79000000000001,8.702335715267317e-15,10.94,3.43,7.272499999999999,7.359999999999999,3.43,2.8020472426424217
1 -> 2,0.5619970000000002,0.5619969999999999,0.5619970000000001,0.5619970000000001,0.5619970000000002,1.3597399555105182e-16,58.0,58.0,58.0,58.0,58.0,0.0,33.79000000000001,33.78999999999999,33.790000000000006,33.790000000000006,33.79000000000001,8.702335715267317e-15,0.66,-7.99,-3.6325000000000003,-3.6,-7.99,3.2234560257586886
1 -> 2,0.5619970000000002,0.5619969999999999,0.5619970000000001,0.5619970000000001,0.5619970000000002,1.3597399555105182e-16,58.0,58.0,58.0,58.0,58.0,0.0,33.79000000000001,33.78999999999999,33.790000000000006,33.790000000000006,33.79000000000001,8.702335715267317e-15,0.66,-7.99,-3.6325000000000003,-3.6,-7.99,3.2234560257586886
1 -> 2,0.5619970000000002,0.5619969999999999,0.5619970000000001,0.5619970000000001,0.5619970000000002,1.3597399555105182e-16,58.0,58.0,58.0,58.0,58.0,0.0,33.79000000000001,33.78999999999999,33.790000000000006,33.790000000000006,33.79000000000001,8.702335715267317e-15,-11.1,-22.65,-16.6475,-16.42,-22.65,4.309323467784705
1 -> 2,0.5619970000000002,0.5619969999999999,0.5619970000000001,0.5619970000000001,0.5619970000000002,1.3597399555105182e-16,58.0,58.0,58.0,58.0,58.0,0.0,33.79000000000001,33.78999999999999,33.790000000000006,33.790000000000006,33.79000000000001,8.702335715267317e-15,-11.1,-22.65,-16.6475,-16.42,-22.65,4.309323467784705
1 -> 2,0.5607170000000002,0.5607169999999999,0.5607170000000001,0.5607170000000001,0.5607170000000002,1.3597399555105182e-16,58.0,58.0,58.0,58.0,58.0,0.0,33.79000000000001,33.78999999999999,33.790000000000006,33.790000000000006,33.79000000000001,8.702335715267317e-15,-27.24,-36.56,-32.6,-33.3,-36.56,3.5743321054429193
1 -> 2,0.5607170000000002,0.5607169999999999,0.5607170000000001,0.5607170000000001,0.5607170000000002,1.3597399555105182e-16,58.0,58.0,58.0,58.0,58.0,0.0,33.79000000000001,33.78999999999999,33.790000000000006,33.790000000000006,33.79000000000001,8.702335715267317e-15,-27.24,-36.56,-32.6,-33.3,-36.56,3.5743321054429193
1 -> 2,0.5607170000000002,0.5607169999999999,0.5607170000000001,0.5607170000000001,0.5607170000000002,1.3597399555105182e-16,58.0,58.0,58.0,58.0,58.0,0.0,33.79000000000001,33.78999999999999,33.790000000000006,33.790000000000006,33.79000000000001,8.702335715267317e-15,-19.2,-35.71,-28.4325,-29.410000000000004,-35.71,6.254423934304422
1 -> 2,0.5607170000000002,0.5607169999999999,0.5607170000000001,0.5607170000000001,0.5607170000000002,1.3597399555105182e-16,58.0,58.0,58.0,58.0,58.0,0.0,33.79000000000001,33.78999999999999,33.790000000000006,33.790000000000006,33.79000000000001,8.702335715267317e-15,-19.2,-35.71,-28.4325,-29.410000000000004,-35.71,6.254423934304422
1 -> 2,0.5607170000000002,0.5607169999999999,0.5607170000000001,0.5607170000000001,0.5607170000000002,1.3597399555105182e-16,58.0,58.0,58.0,58.0,58.0,0.0,33.79000000000001,33.78999999999999,33.790000000000006,33.790000000000006,33.79000000000001,8.702335715267317e-15,12.53,-11.02,1.0299999999999998,1.305,-11.02,8.794376043813456
1 -> 2,0.5607170000000002,0.5607169999999999,0.5607170000000001,0.5607170000000001,0.5607170000000002,1.3597399555105182e-16,58.0,58.0,58.0,58.0,58.0,0.0,33.79000000000001,33.78999999999999,33.790000000000006,33.790000000000006,33.79000000000001,8.702335715267317e-15,12.53,-11.02,1.0299999999999998,1.305,-11.02,8.794376043813456
1 -> 2,0.5607170000000002,0.5607169999999999,0.5607170000000001,0.5607170000000001,0.5607170000000002,1.3597399555105182e-16,58.0,58.0,58.0,58.0,58.0,0.0,33.79000000000001,33.78999999999999,33.790000000000006,33.790000000000006,33.79000000000001,8.702335715267317e-15,29.0,18.74,24.6225,25.375,18.74,3.898117334047297
1 -> 2,0.5607170000000002,0.5607169999999999,0.5607170000000001,0.5607170000000001,0.5607170000000002,1.3597399555105182e-16,58.0,58.0,58.0,58.0,58.0,0.0,33.79000000000001,33.78999999999999,33.790000000000006,33.790000000000006,33.79000000000001,8.702335715267317e-15,29.0,18.74,24.6225,25.375,18.74,3.898117334047297
1 -> 2,0.5607170000000002,0.5607169999999999,0.5607170000000001,0.5607170000000001,0.5607170000000002,1.3597399555105182e-16,57.6,57.6,57.6,57.6,57.6,0.0,33.79000000000001,33.78999999999999,33.790000000000006,33.790000000000006,33.79000000000001,8.702335715267317e-15,29.61,28.24,29.0,29.075000000000003,28.24,0.5326818938165634
1 -> 2,0.5607170000000002,0.5607169999999999,0.5607170000000001,0.5607170000000001,0.5607170000000002,1.3597399555105182e-16,57.6,57.6,57.6,57.6,57.6,0.0,33.79000000000001,33.78999999999999,33.790000000000006,33.790000000000006,33.79000000000001,8.702335715267317e-15,29.61,28.24,29.0,29.075000000000003,28.24,0.5326818938165634
1 -> 2,0.5607170000000002,0.5607169999999999,0.5607170000000001,0.5607170000000001,0.5607170000000002,1.3597399555105182e-16,57.6,57.6,57.6,57.6,57.6,0.0,33.79000000000001,33.78999999999999,33.790000000000006,33.790000000000006,33.79000000000001,8.702335715267317e-15,27.9,27.02,27.51,27.560000000000002,27.02,0.328252951243397
1 -> 2,0.5607170000000002,0.5607169999999999,0.5607170000000001,0.5607170000000001,0.5607170000000002,1.3597399555105182e-16,57.6,57.6,57.6,57.6,57.6,0.0,33.79000000000001,33.78999999999999,33.790000000000006,33.790000000000006,33.79000000000001,8.702335715267317e-15,27.9,27.02,27.51,27.560000000000002,27.02,0.328252951243397
1 -> 2,0.5607170000000002,0.5607169999999999,0.5607170000000001,0.5607170000000001,0.5607170000000002,1.3597399555105182e-16,57.6,57.6,57.6,57.6,57.6,0.0,33.79000000000001,33.78999999999999,33.790000000000006,33.790000000000006,33.79000000000001,8.702335715267317e-15,26.49,25.33,25.8525,25.795,25.33,0.4343026018803019
1 -> 2,0.5607170000000002,0.5607169999999999,0.5607170000000001,0.5607170000000001,0.5607170000000002,1.3597399555105182e-16,57.6,57.6,57.6,57.6,57.6,0.0,33.79000000000001,33.78999999999999,33.790000000000006,33.790000000000006,33.79000000000001,8.702335715267317e-15,26.49,25.33,25.8525,25.795,25.33,0.4343026018803019
1 -> 2,0.5607170000000002,0.5607169999999999,0.5607170000000001,0.5607170000000001,0.5607170000000002,1.3597399555105182e-16,57.6,57.6,57.6,57.6,57.6,0.0,33.79000000000001,33.78999999999999,33.790000000000006,33.790000000000006,33.79000000000001,8.702335715267317e-15,24.92,20.04,22.8675,23.255,20.04,1.8576783225305726
1 -> 2,0.5607170000000002,0.5607169999999999,0.5607170000000001,0.5607170000000001,0.5607170000000002,1.3597399555105182e-16,57.6,57.6,57.6,57.6,57.6,0.0,33.79000000000001,33.78999999999999,33.790000000000006,33.790000000000006,33.79000000000001,8.702335715267317e-15,24.92,20.04,22.8675,23.255,20.04,1.8576783225305726
1 -> 2,0.5594360000000003,0.5594359999999999,0.559436,0.5594360000000002,0.5594360000000003,1.6653345369377348e-16,57.6,57.6,57.6,57.6,57.6,0.0,33.79000000000001,33.78999999999999,33.790000000000006,33.790000000000006,33.79000000000001,8.702335715267317e-15,16.99,7.08,11.985,11.934999999999999,7.08,3.701097810109859
1 -> 2,0.5594360000000003,0.5594359999999999,0.559436,0.5594360000000002,0.5594360000000003,1.6653345369377348e-16,57.6,57.6,57.6,57.6,57.6,0.0,33.79000000000001,33.78999999999999,33.790000000000006,33.790000000000006,33.79000000000001,8.702335715267317e-15,16.99,7.08,11.985,11.934999999999999,7.08,3.701097810109859
1 -> 2,0.5594360000000003,0.5594359999999999,0.559436,0.5594360000000002,0.5594360000000003,1.6653345369377348e-16,57.6,57.6,57.6,57.6,57.6,0.0,33.79000000000001,33.78999999999999,33.790000000000006,33.790000000000006,33.79000000000001,8.702335715267317e-15,4.15,-4.33,-0.05499999999999994,-0.019999999999999907,-4.33,3.1553248644157073
1 -> 2,0.5594360000000003,0.5594359999999999,0.559436,0.5594360000000002,0.5594360000000003,1.6653345369377348e-16,57.6,57.6,57.6,57.6,57.6,0.0,33.79000000000001,33.78999999999999,33.790000000000006,33.790000000000006,33.79000000000001,8.702335715267317e-15,4.15,-4.33,-0.05499999999999994,-0.019999999999999907,-4.33,3.1553248644157073
1 -> 2,0.5594360000000003,0.5594359999999999,0.559436,0.5594360000000002,0.5594360000000003,1.6653345369377348e-16,57.6,57.6,57.6,57.6,57.6,0.0,33.79000000000001,33.78999999999999,33.790000000000006,33.790000000000006,33.79000000000001,8.702335715267317e-15,-7.54,-20.05,-13.544999999999998,-13.295,-20.05,4.6711374417801075
1 -> 2,0.5594360000000003,0.5594359999999999,0.559436,0.5594360000000002,0.5594360000000003,1.6653345369377348e-16,57.6,57.6,57.6,57.6,57.6,0.0,33.79000000000001,33.78999999999999,33.790000000000006,33.790000000000006,33.79000000000001,8.702335715267317e-15,-7.54,-20.05,-13.544999999999998,-13.295,-20.05,4.6711374417801075
1 -> 2,0.5594360000000003,0.5594359999999999,0.559436,0.5594360000000002,0.5594360000000003,1.6653345369377348e-16,57.6,57.6,57.6,57.6,57.6,0.0,33.79000000000001,33.78999999999999,33.790000000000006,33.790000000000006,33.79000000000001,8.702335715267317e-15,-24.82,-32.37,-29.515,-30.435,-32.37,2.990773311369485
1 -> 2,0.5594360000000003,0.5594359999999999,0.559436,0.5594360000000002,0.5594360000000003,1.6653345369377348e-16,57.6,57.6,57.6,57.6,57.6,0.0,33.79000000000001,33.78999999999999,33.790000000000006,33.790000000000006,33.79000000000001,8.702335715267317e-15,-24.82,-32.37,-29.515,-30.435,-32.37,2.990773311369485
1 -> 2,0.5619970000000002,0.5619969999999999,0.5619970000000001,0.5619970000000001,0.5619970000000002,1.3597399555105182e-16,57.6,57.6,57.6,57.6,57.6,0.0,33.79000000000001,33.78999999999999,33.790000000000006,33.790000000000006,33.79000000000001,8.702335715267317e-15,-9.4,-30.14,-20.655,-21.54,-30.14,7.814584122011868
1 -> 2,0.5619970000000002,0.5619969999999999,0.5619970000000001,0.5619970000000001,0.5619970000000002,1.3597399555105182e-16,57.6,57.6,57.6,57.6,57.6,0.0,33.79000000000001,33.78999999999999,33.790000000000006,33.790000000000006,33.79000000000001,8.702335715267317e-15,-9.4,-30.14,-20.655,-21.54,-30.14,7.814584122011868
1 -> 2,0.5619970000000002,0.5619969999999999,0.5619970000000001,0.5619970000000001,0.5619970000000002,1.3597399555105182e-16,57.6,57.6,57.6,57.6,57.6,0.0,33.79000000000001,33.78999999999999,33.790000000000006,33.790000000000006,33.79000000000001,8.702335715267317e-15,19.89,-0.61,10.33,11.02,-0.61,7.6829551606136555
1 -> 2,0.5619970000000002,0.5619969999999999,0.5619970000000001,0.5619970000000001,0.5619970000000002,1.3597399555105182e-16,57.6,57.6,57.6,57.6,57.6,0.0,33.79000000000001,33.78999999999999,33.790000000000006,33.790000000000006,33.79000000000001,8.702335715267317e-15,19.89,-0.61,10.33,11.02,-0.61,7.6829551606136555
1 -> 2,0.5619970000000002,0.5619969999999999,0.5619970000000001,0.5619970000000001,0.5619970000000002,1.3597399555105182e-16,57.6,57.6,57.6,57.6,57.6,0.0,33.79000000000001,33.78999999999999,33.790000000000006,33.790000000000006,33.79000000000001,8.702335715267317e-15,26.72,23.68,25.6575,26.115000000000002,23.68,1.1762307384182746
1 -> 2,0.5619970000000002,0.5619969999999999,0.5619970000000001,0.5619970000000001,0.5619970000000002,1.3597399555105182e-16,57.6,57.6,57.6,57.6,57.6,0.0,33.79000000000001,33.78999999999999,33.790000000000006,33.790000000000006,33.79000000000001,8.702335715267317e-15,26.72,23.68,25.6575,26.115000000000002,23.68,1.1762307384182746
1 -> 2,0.5619970000000002,0.5619969999999999,0.5619970000000001,0.5619970000000001,0.5619970000000002,1.3597399555105182e-16,57.6,57.6,57.6,57.6,57.6,0.0,33.79000000000001,33.78999999999999,33.790000000000006,33.790000000000006,33.79000000000001,8.702335715267317e-15,25.04,20.53,22.6725,22.560000000000002,20.53,1.6980043433395564
1 -> 2,0.5619970000000002,0.5619969999999999,0.5619970000000001,0.5619970000000001,0.5619970000000002,1.3597399555105182e-16,57.6,57.6,57.6,57.6,57.6,0.0,33.79000000000001,33.78999999999999,33.790000000000006,33.790000000000006,33.79000000000001,8.702335715267317e-15,25.04,20.53,22.6725,22.560000000000002,20.53,1.6980043433395564
1 -> 2,0.5594360000000003,0.5594359999999999,0.559436,0.5594360000000002,0.5594360000000003,1.6653345369377348e-16,57.6,57.6,57.6,57.6,57.6,0.0,33.79000000000001,33.78999999999999,33.790000000000006,33.790000000000006,33.79000000000001,8.702335715267317e-15,19.82,18.8,19.3275,19.345,18.8,0.3717105728924049
1 -> 2,0.5594360000000003,0.5594359999999999,0.559436,0.5594360000000002,0.5594360000000003,1.6653345369377348e-16,57.6,57.6,57.6,57.6,57.6,0.0,33.79000000000001,33.78999999999999,33.790000000000006,33.790000000000006,33.79000000000001,8.702335715267317e-15,19.82,18.8,19.3275,19.345,18.8,0.3717105728924049
1 -> 2,0.5594360000000003,0.5594359999999999,0.559436,0.5594360000000002,0.5594360000000003,1.6653345369377348e-16,57.6,57.6,57.6,57.6,57.6,0.0,33.79000000000001,33.78999999999999,33.790000000000006,33.790000000000006,33.79000000000001,8.702335715267317e-15,18.13,15.95,16.9875,16.935000000000002,15.95,0.8190963008096177
1 -> 2,0.5594360000000003,0.5594359999999999,0.559436,0.5594360000000002,0.5594360000000003,1.6653345369377348e-16,57.6,57.6,57.6,57.6,57.6,0.0,33.79000000000001,33.78999999999999,33.790000000000006,33.790000000000006,33.79000000000001,8.702335715267317e-15,18.13,15.95,16.9875,16.935000000000002,15.95,0.8190963008096177
1 -> 2,0.5594360000000003,0.5594359999999999,0.559436,0.5594360000000002,0.5594360000000003,1.6653345369377348e-16,57.6,57.6,57.6,57.6,57.6,0.0,33.79000000000001,33.78999999999999,33.790000000000006,33.790000000000006,33.79000000000001,8.702335715267317e-15,15.48,12.47,14.2075,14.440000000000001,12.47,1.1388673100936735
1 -> 2,0.5594360000000003,0.5594359999999999,0.559436,0.5594360000000002,0.5594360000000003,1.6653345369377348e-16,57.6,57.6,57.6,57.6,57.6,0.0,33.79000000000001,33.78999999999999,33.790000000000006,33.790000000000006,33.79000000000001,8.702335715267317e-15,15.48,12.47,14.2075,14.440000000000001,12.47,1.1388673100936735
1 -> 2,0.5594360000000003,0.5594359999999999,0.559436,0.5594360000000002,0.5594360000000003,1.6653345369377348e-16,57.6,57.6,57.6,57.6,57.6,0.0,33.79000000000001,33.78999999999999,33.790000000000006,33.790000000000006,33.79000000000001,8.702335715267317e-15,10.38,2.37,6.4275,6.48,2.37,2.9935294803960093
1 -> 2,0.5594360000000003,0.5594359999999999,0.559436,0.5594360000000002,0.5594360000000003,1.6653345369377348e-16,57.6,57.6,57.6,57.6,57.6,0.0,33.79000000000001,33.78999999999999,33.790000000000006,33.790000000000006,33.79000000000001,8.702335715267317e-15,10.38,2.37,6.4275,6.48,2.37,2.9935294803960093
1 -> 2,0.5594360000000003,0.5594359999999999,0.559436,0.5594360000000002,0.5594360000000003,1.6653345369377348e-16,60.67,60.67,60.67,60.67,60.67,0.0,33.79000000000001,33.78999999999999,33.790000000000006,33.790000000000006,33.79000000000001,8.702335715267317e-15,-0.3,-8.4,-4.2875,-4.225,-8.4,3.013796401550709
1 -> 2,0.5594360000000003,0.5594359999999999,0.559436,0.5594360000000002,0.5594360000000003,1.6653345369377348e-16,60.67,60.67,60.67,60.67,60.67,0.0,33.79000000000001,33.78999999999999,33.790000000000006,33.790000000000006,33.79000000000001,8.702335715267317e-15,-0.3,-8.4,-4.2875,-4.225,-8.4,3.013796401550709
1 -> 2,0.5594360000000003,0.5594359999999999,0.559436,0.5594360000000002,0.5594360000000003,1.6653345369377348e-16,60.67,60.67,60.67,60.67,60.67,0.0,33.79000000000001,33.78999999999999,33.790000000000006,33.790000000000006,33.79000000000001,8.702335715267317e-15,-11.59,-23.72,-17.4825,-17.310000000000002,-23.72,4.532512410352563
1 -> 2,0.5594360000000003,0.5594359999999999,0.559436,0.5594360000000002,0.5594360000000003,1.6653345369377348e-16,60.67,60.67,60.67,60.67,60.67,0.0,33.79000000000001,33.78999999999999,33.790000000000006,33.790000000000006,33.79000000000001,8.702335715267317e-15,-11.59,-23.72,-17.4825,-17.310000000000002,-23.72,4.532512410352563
1 -> 2,0.5594360000000003,0.5594359999999999,0.559436,0.5594360000000002,0.5594360000000003,1.6653345369377348e-16,60.67,60.67,60.67,60.67,60.67,0.0,33.79000000000001,33.78999999999999,33.790000000000006,33.790000000000006,33.79000000000001,8.702335715267317e-15,-27.85,-32.63,-30.880000000000003,-31.52,-32.63,1.8349114420047632
1 -> 2,0.5594360000000003,0.5594359999999999,0.559436,0.5594360000000002,0.5594360000000003,1.6653345369377348e-16,60.67,60.67,60.67,60.67,60.67,0.0,33.79000000000001,33.78999999999999,33.790000000000006,33.790000000000006,33.79000000000001,8.702335715267317e-15,-27.85,-32.63,-30.880000000000003,-31.52,-32.63,1.8349114420047632
1 -> 2,0.5594360000000003,0.5594359999999999,0.559436,0.5594360000000002,0.5594360000000003,1.6653345369377348e-16,60.67,60.67,60.67,60.67,60.67,0.0,33.79000000000001,33.78999999999999,33.790000000000006,33.790000000000006,33.79000000000001,8.702335715267317e-15,-8.71,-28.84,-19.3675,-19.96,-28.84,7.558317851876831
1 -> 2,0.5594360000000003,0.5594359999999999,0.559436,0.5594360000000002,0.5594360000000003,1.6653345369377348e-16,60.67,60.67,60.67,60.67,60.67,0.0,33.79000000000001,33.78999999999999,33.790000000000006,33.790000000000006,33.79000000000001,8.702335715267317e-15,-8.71,-28.84,-19.3675,-19.96,-28.84,7.558317851876831
1 -> 2,0.5594360000000003,0.5594359999999999,0.559436,0.5594360000000002,0.5594360000000003,1.6653345369377348e-16,60.67,60.67,60.67,60.67,60.67,0.0,33.79000000000001,33.78999999999999,33.790000000000006,33.790000000000006,33.79000000000001,8.702335715267317e-15,14.91,-1.09,7.6425,8.375,-1.09,6.016233767898318
1 -> 2,0.5594360000000003,0.5594359999999999,0.559436,0.5594360000000002,0.5594360000000003,1.6653345369377348e-16,60.67,60.67,60.67,60.67,60.67,0.0,33.79000000000001,33.78999999999999,33.790000000000006,33.790000000000006,33.79000000000001,8.702335715267317e-15,14.91,-1.09,7.6425,8.375,-1.09,6.016233767898318
1 -> 2,0.5594360000000003,0.5594359999999999,0.559436,0.5594360000000002,0.5594360000000003,1.6653345369377348e-16,60.67,60.67,60.67,60.67,60.67,0.0,33.79000000000001,33.78999999999999,33.790000000000006,33.790000000000006,33.79000000000001,8.702335715267317e-15,17.86,16.07,17.1075,17.25,16.07,0.6551860422811214
1 -> 2,0.5594360000000003,0.5594359999999999,0.559436,0.5594360000000002,0.5594360000000003,1.6653345369377348e-16,60.67,60.67,60.67,60.67,60.67,0.0,33.79000000000001,33.78999999999999,33.790000000000006,33.790000000000006,33.79000000000001,8.702335715267317e-15,17.86,16.07,17.1075,17.25,16.07,0.6551860422811214
1 -> 2,0.5594360000000003,0.5594359999999999,0.559436,0.5594360000000002,0.5594360000000003,1.6653345369377348e-16,60.67,60.67,60.67,60.67,60.67,0.0,33.79000000000001,33.78999999999999,33.790000000000006,33.790000000000006,33.79000000000001,8.702335715267317e-15,14.37,10.66,12.2925,12.07,10.66,1.4052824449198813
1 -> 2,0.5594360000000003,0.5594359999999999,0.559436,0.5594360000000002,0.5594360000000003,1.6653345369377348e-16,60.67,60.67,60.67,60.67,60.67,0.0,33.79000000000001,33.78999999999999,33.790000000000006,33.790000000000006,33.79000000000001,8.702335715267317e-15,14.37,10.66,12.2925,12.07,10.66,1.4052824449198813
1 -> 2,0.5594360000000003,0.5594359999999999,0.559436,0.5594360000000002,0.5594360000000003,1.6653345369377348e-16,60.67,60.67,60.67,60.67,60.67,0.0,33.79000000000001,33.78999999999999,33.790000000000006,33.790000000000006,33.79000000000001,8.702335715267317e-15,10.89,10.39,10.627500000000001,10.615,10.39,0.19803724397193576
1 -> 2,0.5594360000000003,0.5594359999999999,0.559436,0.5594360000000002,0.5594360000000003,1.6653345369377348e-16,60.67,60.67,60.67,60.67,60.67,0.0,33.79000000000001,33.78999999999999,33.790000000000006,33.790000000000006,33.79000000000001,8.702335715267317e-15,10.89,10.39,10.627500000000001,10.615,10.39,0.19803724397193576
1 -> 2,0.5568760000000003,0.5568759999999998,0.556876,0.5568760000000001,0.5568760000000003,2.0014830212433605e-16,60.67,60.67,60.67,60.67,60.67,0.0,33.79000000000001,33.78999999999999,33.790000000000006,33.790000000000006,33.79000000000001,8.702335715267317e-15,10.72,6.26,8.8625,9.235,6.26,1.7015636191456378
1 -> 2,0.5568760000000003,0.5568759999999998,0.556876,0.5568760000000001,0.5568760000000003,2.0014830212433605e-16,60.67,60.67,60.67,60.67,60.67,0.0,33.79000000000001,33.78999999999999,33.790000000000006,33.790000000000006,33.79000000000001,8.702335715267317e-15,10.72,6.26,8.8625,9.235,6.26,1.7015636191456378
1 -> 2,0.5568760000000003,0.5568759999999998,0.556876,0.5568760000000001,0.5568760000000003,2.0014830212433605e-16,60.67,60.67,60.67,60.67,60.67,0.0,33.79000000000001,33.78999999999999,33.790000000000006,33.790000000000006,33.79000000000001,8.702335715267317e-15,3.42,-5.1,-0.9974999999999999,-1.155,-5.1,3.19161694913409
1 -> 2,0.5568760000000003,0.5568759999999998,0.556876,0.5568760000000001,0.5568760000000003,2.0014830212433605e-16,60.67,60.67,60.67,60.67,60.67,0.0,33.79000000000001,33.78999999999999,33.790000000000006,33.790000000000006,33.79000000000001,8.702335715267317e-15,3.42,-5.1,-0.9974999999999999,-1.155,-5.1,3.19161694913409
1 -> 2,0.5568760000000003,0.5568759999999998,0.556876,0.5568760000000001,0.5568760000000003,2.0014830212433605e-16,60.67,60.67,60.67,60.67,60.67,0.0,33.79000000000001,33.78999999999999,33.790000000000006,33.790000000000006,33.79000000000001,8.702335715267317e-15,-7.04,-12.45,-9.6125,-9.48,-12.45,2.005123125895265
1 -> 2,0.5568760000000003,0.5568759999999998,0.556876,0.5568760000000001,0.5568760000000003,2.0014830212433605e-16,60.67,60.67,60.67,60.67,60.67,0.0,33.79000000000001,33.78999999999999,33.790000000000006,33.790000000000006,33.79000000000001,8.702335715267317e-15,-7.04,-12.45,-9.6125,-9.48,-12.45,2.005123125895265
1 -> 2,0.5568760000000003,0.5568759999999998,0.556876,0.5568760000000001,0.5568760000000003,2.0014830212433605e-16,60.67,60.67,60.67,60.67,60.67,0.0,33.79000000000001,33.78999999999999,33.790000000000006,33.790000000000006,33.79000000000001,8.702335715267317e-15,-15.34,-27.74,-21.3575,-21.175,-27.74,4.642609045569096
1 -> 2,0.5568760000000003,0.5568759999999998,0.556876,0.5568760000000001,0.5568760000000003,2.0014830212433605e-16,60.67,60.67,60.67,60.67,60.67,0.0,33.79000000000001,33.78999999999999,33.790000000000006,33.790000000000006,33.79000000000001,8.702335715267317e-15,-15.34,-27.74,-21.3575,-21.175,-27.74,4.642609045569096
1 -> 2,0.5568760000000003,0.5568759999999998,0.556876,0.5568760000000001,0.5568760000000003,2.0014830212433605e-16,60.67,60.67,60.67,60.67,60.67,0.0,33.79000000000001,33.78999999999999,33.790000000000006,33.790000000000006,33.79000000000001,8.702335715267317e-15,-31.61,-34.78,-33.3775,-33.56,-34.78,1.219782255158682
1 -> 2,0.5568760000000003,0.5568759999999998,0.556876,0.5568760000000001,0.5568760000000003,2.0014830212433605e-16,60.67,60.67,60.67,60.67,60.67,0.0,33.79000000000001,33.78999999999999,33.790000000000006,33.790000000000006,33.79000000000001,8.702335715267317e-15,-31.61,-34.78,-33.3775,-33.56,-34.78,1.219782255158682
1 -> 2,0.5568760000000003,0.5568759999999998,0.556876,0.5568760000000001,0.5568760000000003,2.0014830212433605e-16,60.67,60.67,60.67,60.67,60.67,0.0,33.79000000000001,33.78999999999999,33.790000000000006,33.790000000000006,33.79000000000001,8.702335715267317e-15,-6.0,-28.55,-17.7075,-18.14,-28.55,8.451808608221082
1 -> 2,0.5568760000000003,0.5568759999999998,0.556876,0.5568760000000001,0.5568760000000003,2.0014830212433605e-16,60.67,60.67,60.67,60.67,60.67,0.0,33.79000000000001,33.78999999999999,33.790000000000006,33.790000000000006,33.79000000000001,8.702335715267317e-15,-6.0,-28.55,-17.7075,-18.14,-28.55,8.451808608221082
1 -> 2,0.5568760000000003,0.5568759999999998,0.556876,0.5568760000000001,0.5568760000000003,2.0014830212433605e-16,60.67,60.67,60.67,60.67,60.67,0.0,33.79000000000001,33.78999999999999,33.790000000000006,33.790000000000006,33.79000000000001,8.702335715267317e-15,16.08,1.68,9.7175,10.555,1.68,5.437068948431682
1 -> 2,0.5568760000000003,0.5568759999999998,0.556876,0.5568760000000001,0.5568760000000003,2.0014830212433605e-16,60.67,60.67,60.67,60.67,60.67,0.0,33.79000000000001,33.78999999999999,33.790000000000006,33.790000000000006,33.79000000000001,8.702335715267317e-15,16.08,1.68,9.7175,10.555,1.68,5.437068948431682
1 -> 2,0.5568760000000003,0.5568759999999998,0.556876,0.5568760000000001,0.5568760000000003,2.0014830212433605e-16,60.67,60.67,60.67,60.67,60.67,0.0,33.79000000000001,33.78999999999999,33.790000000000006,33.790000000000006,33.79000000000001,8.702335715267317e-15,17.52,14.43,16.439999999999998,16.905,14.43,1.2573185753817524
1 -> 2,0.5568760000000003,0.5568759999999998,0.556876,0.5568760000000001,0.5568760000000003,2.0014830212433605e-16,60.67,60.67,60.67,60.67,60.67,0.0,33.79000000000001,33.78999999999999,33.790000000000006,33.790000000000006,33.79000000000001,8.702335715267317e-15,17.52,14.43,16.439999999999998,16.905,14.43,1.2573185753817524
1 -> 2,0.5555960000000002,0.5555959999999998,0.555596,0.555596,0.5555960000000002,2.0014830212433605e-16,63.0,63.0,63.0,63.0,63.0,0.0,33.77000000000002,33.76999999999999,33.77000000000001,33.77000000000001,33.77000000000002,1.3759600911837627e-14,12.31,8.38,10.045,9.745000000000001,8.38,1.4994749080928298
1 -> 2,0.5555960000000002,0.5555959999999998,0.555596,0.555596,0.5555960000000002,2.0014830212433605e-16,63.0,63.0,63.0,63.0,63.0,0.0,33.77000000000002,33.76999999999999,33.77000000000001,33.77000000000001,33.77000000000002,1.3759600911837627e-14,12.31,8.38,10.045,9.745000000000001,8.38,1.4994749080928298
1 -> 2,0.5555960000000002,0.5555959999999998,0.555596,0.555596,0.5555960000000002,2.0014830212433605e-16,63.0,63.0,63.0,63.0,63.0,0.0,33.77000000000002,33.76999999999999,33.77000000000001,33.77000000000001,33.77000000000002,1.3759600911837627e-14,9.87,8.29,9.0075,8.935,8.29,0.6006819041722499
1 -> 2,0.5555960000000002,0.5555959999999998,0.555596,0.555596,0.5555960000000002,2.0014830212433605e-16,63.0,63.0,63.0,63.0,63.0,0.0,33.77000000000002,33.76999999999999,33.77000000000001,33.77000000000001,33.77000000000002,1.3759600911837627e-14,9.87,8.29,9.0075,8.935,8.29,0.6006819041722499
1 -> 2,0.5555960000000002,0.5555959999999998,0.555596,0.555596,0.5555960000000002,2.0014830212433605e-16,63.0,63.0,63.0,63.0,63.0,0.0,33.77000000000002,33.76999999999999,33.77000000000001,33.77000000000001,33.77000000000002,1.3759600911837627e-14,10.43,8.64,9.83,10.125,8.64,0.7145977889694312
1 -> 2,0.5555960000000002,0.5555959999999998,0.555596,0.555596,0.5555960000000002,2.0014830212433605e-16,63.0,63.0,63.0,63.0,63.0,0.0,33.77000000000002,33.76999999999999,33.77000000000001,33.77000000000001,33.77000000000002,1.3759600911837627e-14,10.43,8.64,9.83,10.125,8.64,0.7145977889694312
1 -> 2,0.5555960000000002,0.5555959999999998,0.555596,0.555596,0.5555960000000002,2.0014830212433605e-16,63.0,63.0,63.0,63.0,63.0,0.0,33.77000000000002,33.76999999999999,33.77000000000001,33.77000000000001,33.77000000000002,1.3759600911837627e-14,6.6,-2.1,2.35,2.45,-2.1,3.2551881666041984
1 -> 2,0.5555960000000002,0.5555959999999998,0.555596,0.555596,0.5555960000000002,2.0014830212433605e-16,63.0,63.0,63.0,63.0,63.0,0.0,33.77000000000002,33.76999999999999,33.77000000000001,33.77000000000001,33.77000000000002,1.3759600911837627e-14,6.6,-2.1,2.35,2.45,-2.1,3.2551881666041984
1 -> 2,0.5543160000000003,0.5543159999999999,0.5543160000000001,0.5543160000000003,0.5543160000000003,1.3597399555105182e-16,63.0,63.0,63.0,63.0,63.0,0.0,33.77000000000002,33.76999999999999,33.77000000000001,33.77000000000001,33.77000000000002,1.3759600911837627e-14,-5.05,-14.32,-9.567499999999999,-9.45,-14.32,3.4467983332362224
1 -> 2,0.5543160000000003,0.5543159999999999,0.5543160000000001,0.5543160000000003,0.5543160000000003,1.3597399555105182e-16,63.0,63.0,63.0,63.0,63.0,0.0,33.77000000000002,33.76999999999999,33.77000000000001,33.77000000000001,33.77000000000002,1.3759600911837627e-14,-5.05,-14.32,-9.567499999999999,-9.45,-14.32,3.4467983332362224
1 -> 2,0.5543160000000003,0.5543159999999999,0.5543160000000001,0.5543160000000003,0.5543160000000003,1.3597399555105182e-16,63.0,63.0,63.0,63.0,63.0,0.0,33.77000000000002,33.76999999999999,33.77000000000001,33.77000000000001,33.77000000000002,1.3759600911837627e-14,-18.2,-32.28,-25.1475,-25.055,-32.28,5.26359846017912
1 -> 2,0.5543160000000003,0.5543159999999999,0.5543160000000001,0.5543160000000003,0.5543160000000003,1.3597399555105182e-16,63.0,63.0,63.0,63.0,63.0,0.0,33.77000000000002,33.76999999999999,33.77000000000001,33.77000000000001,33.77000000000002,1.3759600911837627e-14,-18.2,-32.28,-25.1475,-25.055,-32.28,5.26359846017912
1 -> 2,0.5543160000000003,0.5543159999999999,0.5543160000000001,0.5543160000000003,0.5543160000000003,1.3597399555105182e-16,63.0,63.0,63.0,63.0,63.0,0.0,33.77000000000002,33.76999999999999,33.77000000000001,33.77000000000001,33.77000000000002,1.3759600911837627e-14,-36.49,-40.16,-38.599999999999994,-38.875,-40.16,1.3699817517032826
1 -> 2,0.5543160000000003,0.5543159999999999,0.5543160000000001,0.5543160000000003,0.5543160000000003,1.3597399555105182e-16,63.0,63.0,63.0,63.0,63.0,0.0,33.77000000000002,33.76999999999999,33.77000000000001,33.77000000000001,33.77000000000002,1.3759600911837627e-14,-36.49,-40.16,-38.599999999999994,-38.875,-40.16,1.3699817517032826
1 -> 2,0.5543160000000003,0.5543159999999999,0.5543160000000001,0.5543160000000003,0.5543160000000003,1.3597399555105182e-16,63.0,63.0,63.0,63.0,63.0,0.0,33.77000000000002,33.76999999999999,33.77000000000001,33.77000000000001,33.77000000000002,1.3759600911837627e-14,-9.69,-33.91,-22.345,-22.89,-33.91,9.079816903440287
1 -> 2,0.5543160000000003,0.5543159999999999,0.5543160000000001,0.5543160000000003,0.5543160000000003,1.3597399555105182e-16,63.0,63.0,63.0,63.0,63.0,0.0,33.77000000000002,33.76999999999999,33.77000000000001,33.77000000000001,33.77000000000002,1.3759600911837627e-14,-9.69,-33.91,-22.345,-22.89,-33.91,9.079816903440287
1 -> 2,0.5543160000000003,0.5543159999999999,0.5543160000000001,0.5543160000000003,0.5543160000000003,1.3597399555105182e-16,63.0,63.0,63.0,63.0,63.0,0.0,33.77000000000002,33.76999999999999,33.77000000000001,33.77000000000001,33.77000000000002,1.3759600911837627e-14,17.1,-1.03,8.83,9.625,-1.03,6.810701138649383
1 -> 2,0.5543160000000003,0.5543159999999999,0.5543160000000001,0.5543160000000003,0.5543160000000003,1.3597399555105182e-16,63.0,63.0,63.0,63.0,63.0,0.0,33.77000000000002,33.76999999999999,33.77000000000001,33.77000000000001,33.77000000000002,1.3759600911837627e-14,17.1,-1.03,8.83,9.625,-1.03,6.810701138649383
1 -> 2,0.5543160000000003,0.5543159999999999,0.5543160000000001,0.5543160000000003,0.5543160000000003,1.3597399555105182e-16,63.0,63.0,63.0,63.0,63.0,0.0,33.77000000000002,33.76999999999999,33.77000000000001,33.77000000000001,33.77000000000002,1.3759600911837627e-14,20.86,19.08,20.06,20.15,19.08,0.6822023160324219
1 -> 2,0.5543160000000003,0.5543159999999999,0.5543160000000001,0.5543160000000003,0.5543160000000003,1.3597399555105182e-16,63.0,63.0,63.0,63.0,63.0,0.0,33.77000000000002,33.76999999999999,33.77000000000001,33.77000000000001,33.77000000000002,1.3759600911837627e-14,20.86,19.08,20.06,20.15,19.08,0.6822023160324219
1 -> 2,0.5543160000000003,0.5543159999999999,0.5543160000000001,0.5543160000000003,0.5543160000000003,1.3597399555105182e-16,63.0,63.0,63.0,63.0,63.0,0.0,33.77000000000002,33.76999999999999,33.77000000000001,33.77000000000001,33.77000000000002,1.3759600911837627e-14,17.1,12.29,14.457500000000001,14.22,12.29,1.816925631389464
1 -> 2,0.5543160000000003,0.5543159999999999,0.5543160000000001,0.5543160000000003,0.5543160000000003,1.3597399555105182e-16,63.0,63.0,63.0,63.0,63.0,0.0,33.77000000000002,33.76999999999999,33.77000000000001,33.77000000000001,33.77000000000002,1.3759600911837627e-14,17.1,12.29,14.457500000000001,14.22,12.29,1.816925631389464
1 -> 2,0.5543160000000003,0.5543159999999999,0.5543160000000001,0.5543160000000003,0.5543160000000003,1.3597399555105182e-16,63.0,63.0,63.0,63.0,63.0,0.0,33.77000000000002,33.76999999999999,33.77000000000001,33.77000000000001,33.77000000000002,1.3759600911837627e-14,12.72,11.84,12.19,12.1,11.84,0.35064226784573493
1 -> 2,0.5543160000000003,0.5543159999999999,0.5543160000000001,0.5543160000000003,0.5543160000000003,1.3597399555105182e-16,63.0,63.0,63.0,63.0,63.0,0.0,33.77000000000002,33.76999999999999,33.77000000000001,33.77000000000001,33.77000000000002,1.3759600911837627e-14,12.72,11.84,12.19,12.1,11.84,0.35064226784573493
1 -> 2,0.5581560000000002,0.5581559999999998,0.558156,0.5581560000000001,0.5581560000000002,2.0014830212433605e-16,63.0,63.0,63.0,63.0,63.0,0.0,33.77000000000002,33.76999999999999,33.77000000000001,33.77000000000001,33.77000000000002,1.3759600911837627e-14,12.96,10.75,12.1275,12.399999999999999,10.75,0.8678817603798343
1 -> 2,0.5581560000000002,0.5581559999999998,0.558156,0.5581560000000001,0.5581560000000002,2.0014830212433605e-16,63.0,63.0,63.0,63.0,63.0,0.0,33.77000000000002,33.76999999999999,33.77000000000001,33.77000000000001,33.77000000000002,1.3759600911837627e-14,12.96,10.75,12.1275,12.399999999999999,10.75,0.8678817603798343
1 -> 2,0.5581560000000002,0.5581559999999998,0.558156,0.5581560000000001,0.5581560000000002,2.0014830212433605e-16,63.0,63.0,63.0,63.0,63.0,0.0,33.77000000000002,33.76999999999999,33.77000000000001,33.77000000000001,33.77000000000002,1.3759600911837627e-14,9.09,3.63,6.35,6.34,3.63,2.0348464315520225
1 -> 2,0.5581560000000002,0.5581559999999998,0.558156,0.5581560000000001,0.5581560000000002,2.0014830212433605e-16,63.0,63.0,63.0,63.0,63.0,0.0,33.77000000000002,33.76999999999999,33.77000000000001,33.77000000000001,33.77000000000002,1.3759600911837627e-14,9.09,3.63,6.35,6.34,3.63,2.0348464315520225
1 -> 2,0.5581560000000002,0.5581559999999998,0.558156,0.5581560000000001,0.5581560000000002,2.0014830212433605e-16,63.0,63.0,63.0,63.0,63.0,0.0,33.77000000000002,33.76999999999999,33.77000000000001,33.77000000000001,33.77000000000002,1.3759600911837627e-14,1.72,-6.76,-2.2225,-1.9249999999999998,-6.76,3.170223769704593
1 -> 2,0.5581560000000002,0.5581559999999998,0.558156,0.5581560000000001,0.5581560000000002,2.0014830212433605e-16,63.0,63.0,63.0,63.0,63.0,0.0,33.77000000000002,33.76999999999999,33.77000000000001,33.77000000000001,33.77000000000002,1.3759600911837627e-14,1.72,-6.76,-2.2225,-1.9249999999999998,-6.76,3.170223769704593
1 -> 2,0.5581560000000002,0.5581559999999998,0.558156,0.5581560000000001,0.5581560000000002,2.0014830212433605e-16,63.0,63.0,63.0,63.0,63.0,0.0,33.77000000000002,33.76999999999999,33.77000000000001,33.77000000000001,33.77000000000002,1.3759600911837627e-14,-10.8,-23.8,-17.4075,-17.515,-23.8,4.866114337949736
1 -> 2,0.5581560000000002,0.5581559999999998,0.558156,0.5581560000000001,0.5581560000000002,2.0014830212433605e-16,63.0,63.0,63.0,63.0,63.0,0.0,33.77000000000002,33.76999999999999,33.77000000000001,33.77000000000001,33.77000000000002,1.3759600911837627e-14,-10.8,-23.8,-17.4075,-17.515,-23.8,4.866114337949736
1 -> 2,0.5568760000000003,0.5568759999999998,0.556876,0.5568760000000001,0.5568760000000003,2.0014830212433605e-16,65.62,65.62,65.62,65.62,65.62,0.0,33.79000000000001,33.78999999999999,33.790000000000006,33.790000000000006,33.79000000000001,8.702335715267317e-15,-22.95,-27.85,-26.0425,-26.685,-27.85,1.8478822338017111
1 -> 2,0.5568760000000003,0.5568759999999998,0.556876,0.5568760000000001,0.5568760000000003,2.0014830212433605e-16,65.62,65.62,65.62,65.62,65.62,0.0,33.79000000000001,33.78999999999999,33.790000000000006,33.790000000000006,33.79000000000001,8.702335715267317e-15,-22.95,-27.85,-26.0425,-26.685,-27.85,1.8478822338017111
1 -> 2,0.5568760000000003,0.5568759999999998,0.556876,0.5568760000000001,0.5568760000000003,2.0014830212433605e-16,65.62,65.62,65.62,65.62,65.62,0.0,33.79000000000001,33.78999999999999,33.790000000000006,33.790000000000006,33.79000000000001,8.702335715267317e-15,6.22,-16.99,-5.425,-5.465,-16.99,8.68793560059005
1 -> 2,0.5568760000000003,0.5568759999999998,0.556876,0.5568760000000001,0.5568760000000003,2.0014830212433605e-16,65.62,65.62,65.62,65.62,65.62,0.0,33.79000000000001,33.78999999999999,33.790000000000006,33.790000000000006,33.79000000000001,8.702335715267317e-15,6.22,-16.99,-5.425,-5.465,-16.99,8.68793560059005
1 -> 2,0.5568760000000003,0.5568759999999998,0.556876,0.5568760000000001,0.5568760000000003,2.0014830212433605e-16,65.62,65.62,65.62,65.62,65.62,0.0,33.79000000000001,33.78999999999999,33.790000000000006,33.790000000000006,33.79000000000001,8.702335715267317e-15,22.74,12.72,18.509999999999998,19.29,12.72,3.810472411657116
1 -> 2,0.5568760000000003,0.5568759999999998,0.556876,0.5568760000000001,0.5568760000000003,2.0014830212433605e-16,65.62,65.62,65.62,65.62,65.62,0.0,33.79000000000001,33.78999999999999,33.790000000000006,33.790000000000006,33.79000000000001,8.702335715267317e-15,22.74,12.72,18.509999999999998,19.29,12.72,3.810472411657116
1 -> 2,0.5568760000000003,0.5568759999999998,0.556876,0.5568760000000001,0.5568760000000003,2.0014830212433605e-16,65.62,65.62,65.62,65.62,65.62,0.0,33.79000000000001,33.78999999999999,33.790000000000006,33.790000000000006,33.79000000000001,8.702335715267317e-15,23.3,19.64,21.827499999999997,22.185,19.64,1.4178394655249231
1 -> 2,0.5568760000000003,0.5568759999999998,0.556876,0.5568760000000001,0.5568760000000003,2.0014830212433605e-16,65.62,65.62,65.62,65.62,65.62,0.0,33.79000000000001,33.78999999999999,33.790000000000006,33.790000000000006,33.79000000000001,8.702335715267317e-15,23.3,19.64,21.827499999999997,22.185,19.64,1.4178394655249231
1 -> 2,0.5581560000000002,0.5581559999999998,0.558156,0.5581560000000001,0.5581560000000002,2.0014830212433605e-16,65.62,65.62,65.62,65.62,65.62,0.0,33.79000000000001,33.78999999999999,33.790000000000006,33.790000000000006,33.79000000000001,8.702335715267317e-15,17.35,10.88,13.977500000000001,13.84,10.88,2.424606926905885
1 -> 2,0.5581560000000002,0.5581559999999998,0.558156,0.5581560000000001,0.5581560000000002,2.0014830212433605e-16,65.62,65.62,65.62,65.62,65.62,0.0,33.79000000000001,33.78999999999999,33.790000000000006,33.790000000000006,33.79000000000001,8.702335715267317e-15,17.35,10.88,13.977500000000001,13.84,10.88,2.424606926905885
1 -> 2,0.5581560000000002,0.5581559999999998,0.558156,0.5581560000000001,0.5581560000000002,2.0014830212433605e-16,65.62,65.62,65.62,65.62,65.62,0.0,33.79000000000001,33.78999999999999,33.790000000000006,33.790000000000006,33.79000000000001,8.702335715267317e-15,9.54,7.4,8.4025,8.335,7.4,0.7915925403893088
1 -> 2,0.5581560000000002,0.5581559999999998,0.558156,0.5581560000000001,0.5581560000000002,2.0014830212433605e-16,65.62,65.62,65.62,65.62,65.62,0.0,33.79000000000001,33.78999999999999,33.790000000000006,33.790000000000006,33.79000000000001,8.702335715267317e-15,9.54,7.4,8.4025,8.335,7.4,0.7915925403893088
1 -> 2,0.5581560000000002,0.5581559999999998,0.558156,0.5581560000000001,0.5581560000000002,2.0014830212433605e-16,65.62,65.62,65.62,65.62,65.62,0.0,33.79000000000001,33.78999999999999,33.790000000000006,33.790000000000006,33.79000000000001,8.702335715267317e-15,6.55,1.81,4.3475,4.515000000000001,1.81,1.77778478731257
1 -> 2,0.5581560000000002,0.5581559999999998,0.558156,0.5581560000000001,0.5581560000000002,2.0014830212433605e-16,65.62,65.62,65.62,65.62,65.62,0.0,33.79000000000001,33.78999999999999,33.790000000000006,33.790000000000006,33.79000000000001,8.702335715267317e-15,6.55,1.81,4.3475,4.515000000000001,1.81,1.77778478731257
1 -> 2,0.5581560000000002,0.5581559999999998,0.558156,0.5581560000000001,0.5581560000000002,2.0014830212433605e-16,65.62,65.62,65.62,65.62,65.62,0.0,33.79000000000001,33.78999999999999,33.790000000000006,33.790000000000006,33.79000000000001,8.702335715267317e-15,-0.19,-6.27,-3.21,-3.19,-6.27,2.2608073779072817
1 -> 2,0.5581560000000002,0.5581559999999998,0.558156,0.5581560000000001,0.5581560000000002,2.0014830212433605e-16,65.62,65.62,65.62,65.62,65.62,0.0,33.79000000000001,33.78999999999999,33.790000000000006,33.790000000000006,33.79000000000001,8.702335715267317e-15,-0.19,-6.27,-3.21,-3.19,-6.27,2.2608073779072817
1 -> 2,0.5555960000000002,0.5555959999999998,0.555596,0.555596,0.5555960000000002,2.0014830212433605e-16,65.62,65.62,65.62,65.62,65.62,0.0,33.79000000000001,33.78999999999999,33.790000000000006,33.790000000000006,33.79000000000001,8.702335715267317e-15,-8.64,-18.71,-13.4125,-13.15,-18.71,3.7624086367644867
1 -> 2,0.5555960000000002,0.5555959999999998,0.555596,0.555596,0.5555960000000002,2.0014830212433605e-16,65.62,65.62,65.62,65.62,65.62,0.0,33.79000000000001,33.78999999999999,33.790000000000006,33.790000000000006,33.79000000000001,8.702335715267317e-15,-8.64,-18.71,-13.4125,-13.15,-18.71,3.7624086367644867
1 -> 2,0.5555960000000002,0.5555959999999998,0.555596,0.555596,0.5555960000000002,2.0014830212433605e-16,65.62,65.62,65.62,65.62,65.62,0.0,33.79000000000001,33.78999999999999,33.790000000000006,33.790000000000006,33.79000000000001,8.702335715267317e-15,-22.96,-34.84,-29.1475,-29.395,-34.84,4.453669133422465
1 -> 2,0.5555960000000002,0.5555959999999998,0.555596,0.555596,0.5555960000000002,2.0014830212433605e-16,65.62,65.62,65.62,65.62,65.62,0.0,33.79000000000001,33.78999999999999,33.790000000000006,33.790000000000006,33.79000000000001,8.702335715267317e-15,-22.96,-34.84,-29.1475,-29.395,-34.84,4.453669133422465
1 -> 2,0.5555960000000002,0.5555959999999998,0.555596,0.555596,0.5555960000000002,2.0014830212433605e-16,65.62,65.62,65.62,65.62,65.62,0.0,33.79000000000001,33.78999999999999,33.790000000000006,33.790000000000006,33.79000000000001,8.702335715267317e-15,-30.55,-37.03,-34.8425,-35.894999999999996,-37.03,2.615658377923234
1 -> 2,0.5555960000000002,0.5555959999999998,0.555596,0.555596,0.5555960000000002,2.0014830212433605e-16,65.62,65.62,65.62,65.62,65.62,0.0,33.79000000000001,33.78999999999999,33.790000000000006,33.790000000000006,33.79000000000001,8.702335715267317e-15,-30.55,-37.03,-34.8425,-35.894999999999996,-37.03,2.615658377923234
1 -> 2,0.5555960000000002,0.5555959999999998,0.555596,0.555596,0.5555960000000002,2.0014830212433605e-16,65.62,65.62,65.62,65.62,65.62,0.0,33.79000000000001,33.78999999999999,33.790000000000006,33.790000000000006,33.79000000000001,8.702335715267317e-15,-3.06,-24.37,-13.5925,-13.469999999999999,-24.37,7.971870467462451
1 -> 2,0.5555960000000002,0.5555959999999998,0.555596,0.555596,0.5555960000000002,2.0014830212433605e-16,65.62,65.62,65.62,65.62,65.62,0.0,33.79000000000001,33.78999999999999,33.790000000000006,33.790000000000006,33.79000000000001,8.702335715267317e-15,-3.06,-24.37,-13.5925,-13.469999999999999,-24.37,7.971870467462451
1 -> 2,0.5581560000000002,0.5581559999999998,0.558156,0.5581560000000001,0.5581560000000002,2.0014830212433605e-16,65.62,65.62,65.62,65.62,65.62,0.0,33.79000000000001,33.78999999999999,33.790000000000006,33.790000000000006,33.79000000000001,8.702335715267317e-15,9.87,2.46,6.9399999999999995,7.715,2.46,2.866086181537464
1 -> 2,0.5581560000000002,0.5581559999999998,0.558156,0.5581560000000001,0.5581560000000002,2.0014830212433605e-16,65.62,65.62,65.62,65.62,65.62,0.0,33.79000000000001,33.78999999999999,33.790000000000006,33.790000000000006,33.79000000000001,8.702335715267317e-15,9.87,2.46,6.9399999999999995,7.715,2.46,2.866086181537464
1 -> 2,0.5581560000000002,0.5581559999999998,0.558156,0.5581560000000001,0.5581560000000002,2.0014830212433605e-16,65.62,65.62,65.62,65.62,65.62,0.0,33.79000000000001,33.78999999999999,33.790000000000006,33.790000000000006,33.79000000000001,8.702335715267317e-15,9.46,3.72,6.79,6.99,3.72,2.165386801474508
1 -> 2,0.5581560000000002,0.5581559999999998,0.558156,0.5581560000000001,0.5581560000000002,2.0014830212433605e-16,65.62,65.62,65.62,65.62,65.62,0.0,33.79000000000001,33.78999999999999,33.790000000000006,33.790000000000006,33.79000000000001,8.702335715267317e-15,9.46,3.72,6.79,6.99,3.72,2.165386801474508
1 -> 2,0.5581560000000002,0.5581559999999998,0.558156,0.5581560000000001,0.5581560000000002,2.0014830212433605e-16,65.62,65.62,65.62,65.62,65.62,0.0,33.79000000000001,33.78999999999999,33.790000000000006,33.790000000000006,33.79000000000001,8.702335715267317e-15,1.69,-1.57,-0.1825,-0.425,-1.57,1.2370807370580144
1 -> 2,0.5581560000000002,0.5581559999999998,0.558156,0.5581560000000001,0.5581560000000002,2.0014830212433605e-16,65.62,65.62,65.62,65.62,65.62,0.0,33.79000000000001,33.78999999999999,33.790000000000006,33.790000000000006,33.79000000000001,8.702335715267317e-15,1.69,-1.57,-0.1825,-0.425,-1.57,1.2370807370580144
1 -> 2,0.5581560000000002,0.5581559999999998,0.558156,0.5581560000000001,0.5581560000000002,2.0014830212433605e-16,65.62,65.62,65.62,65.62,65.62,0.0,33.79000000000001,33.78999999999999,33.790000000000006,33.790000000000006,33.79000000000001,8.702335715267317e-15,-1.87,-2.32,-2.0775,-2.06,-2.32,0.16558608033285882
1 -> 2,0.5581560000000002,0.5581559999999998,0.558156,0.5581560000000001,0.5581560000000002,2.0014830212433605e-16,65.62,65.62,65.62,65.62,65.62,0.0,33.79000000000001,33.78999999999999,33.790000000000006,33.790000000000006,33.79000000000001,8.702335715267317e-15,-1.87,-2.32,-2.0775,-2.06,-2.32,0.16558608033285882
1 -> 2,0.5555960000000002,0.5555959999999998,0.555596,0.555596,0.5555960000000002,2.0014830212433605e-16,68.0,68.0,68.0,68.0,68.0,0.0,33.79000000000001,33.78999999999999,33.790000000000006,33.790000000000006,33.79000000000001,8.702335715267317e-15,-2.7,-5.01,-3.77,-3.685,-5.01,0.8673234690702194
1 -> 2,0.5555960000000002,0.5555959999999998,0.555596,0.555596,0.5555960000000002,2.0014830212433605e-16,68.0,68.0,68.0,68.0,68.0,0.0,33.79000000000001,33.78999999999999,33.790000000000006,33.790000000000006,33.79000000000001,8.702335715267317e-15,-2.7,-5.01,-3.77,-3.685,-5.01,0.8673234690702194
1 -> 2,0.5555960000000002,0.5555959999999998,0.555596,0.555596,0.5555960000000002,2.0014830212433605e-16,68.0,68.0,68.0,68.0,68.0,0.0,33.79000000000001,33.78999999999999,33.790000000000006,33.790000000000006,33.79000000000001,8.702335715267317e-15,-6.09,-11.1,-8.3725,-8.149999999999999,-11.1,1.8727035937382082
1 -> 2,0.5555960000000002,0.5555959999999998,0.555596,0.555596,0.5555960000000002,2.0014830212433605e-16,68.0,68.0,68.0,68.0,68.0,0.0,33.79000000000001,33.78999999999999,33.790000000000006,33.790000000000006,33.79000000000001,8.702335715267317e-15,-6.09,-11.1,-8.3725,-8.149999999999999,-11.1,1.8727035937382082
1 -> 2,0.5555960000000002,0.5555959999999998,0.555596,0.555596,0.5555960000000002,2.0014830212433605e-16,68.0,68.0,68.0,68.0,68.0,0.0,33.79000000000001,33.78999999999999,33.790000000000006,33.790000000000006,33.79000000000001,8.702335715267317e-15,-13.96,-26.45,-19.9875,-19.770000000000003,-26.45,4.6753148289714135
1 -> 2,0.5555960000000002,0.5555959999999998,0.555596,0.555596,0.5555960000000002,2.0014830212433605e-16,68.0,68.0,68.0,68.0,68.0,0.0,33.79000000000001,33.78999999999999,33.790000000000006,33.790000000000006,33.79000000000001,8.702335715267317e-15,-13.96,-26.45,-19.9875,-19.770000000000003,-26.45,4.6753148289714135
1 -> 2,0.5555960000000002,0.5555959999999998,0.555596,0.555596,0.5555960000000002,2.0014830212433605e-16,68.0,68.0,68.0,68.0,68.0,0.0,33.79000000000001,33.78999999999999,33.790000000000006,33.790000000000006,33.79000000000001,8.702335715267317e-15,-30.55,-34.32,-32.762499999999996,-33.09,-34.32,1.3922351633255066
1 -> 2,0.5555960000000002,0.5555959999999998,0.555596,0.555596,0.5555960000000002,2.0014830212433605e-16,68.0,68.0,68.0,68.0,68.0,0.0,33.79000000000001,33.78999999999999,33.790000000000006,33.790000000000006,33.79000000000001,8.702335715267317e-15,-30.55,-34.32,-32.762499999999996,-33.09,-34.32,1.3922351633255066
1 -> 2,0.5555960000000002,0.5555959999999998,0.555596,0.555596,0.5555960000000002,2.0014830212433605e-16,68.0,68.0,68.0,68.0,68.0,0.0,33.79000000000001,33.78999999999999,33.790000000000006,33.790000000000006,33.79000000000001,8.702335715267317e-15,-6.93,-28.69,-18.277500000000003,-18.745,-28.69,8.156657939989882
1 -> 2,0.5555960000000002,0.5555959999999998,0.555596,0.555596,0.5555960000000002,2.0014830212433605e-16,68.0,68.0,68.0,68.0,68.0,0.0,33.79000000000001,33.78999999999999,33.790000000000006,33.790000000000006,33.79000000000001,8.702335715267317e-15,-6.93,-28.69,-18.277500000000003,-18.745,-28.69,8.156657939989882
1 -> 2,0.5555960000000002,0.5555959999999998,0.555596,0.555596,0.5555960000000002,2.0014830212433605e-16,68.0,68.0,68.0,68.0,68.0,0.0,33.79000000000001,33.78999999999999,33.790000000000006,33.790000000000006,33.79000000000001,8.702335715267317e-15,17.43,0.82,9.8025,10.48,0.82,6.234221583325379
1 -> 2,0.5555960000000002,0.5555959999999998,0.555596,0.555596,0.5555960000000002,2.0014830212433605e-16,68.0,68.0,68.0,68.0,68.0,0.0,33.79000000000001,33.78999999999999,33.790000000000006,33.790000000000006,33.79000000000001,8.702335715267317e-15,17.43,0.82,9.8025,10.48,0.82,6.234221583325379
1 -> 2,0.5555960000000002,0.5555959999999998,0.555596,0.555596,0.5555960000000002,2.0014830212433605e-16,68.0,68.0,68.0,68.0,68.0,0.0,33.79000000000001,33.78999999999999,33.790000000000006,33.790000000000006,33.79000000000001,8.702335715267317e-15,21.13,19.19,20.285,20.41,19.19,0.7422095391464587
1 -> 2,0.5555960000000002,0.5555959999999998,0.555596,0.555596,0.5555960000000002,2.0014830212433605e-16,68.0,68.0,68.0,68.0,68.0,0.0,33.79000000000001,33.78999999999999,33.790000000000006,33.790000000000006,33.79000000000001,8.702335715267317e-15,21.13,19.19,20.285,20.41,19.19,0.7422095391464587
1 -> 2,0.5555960000000002,0.5555959999999998,0.555596,0.555596,0.5555960000000002,2.0014830212433605e-16,68.0,68.0,68.0,68.0,68.0,0.0,33.79000000000001,33.78999999999999,33.790000000000006,33.790000000000006,33.79000000000001,8.702335715267317e-15,16.79,9.99,13.15,12.91,9.99,2.560781130827076
1 -> 2,0.5555960000000002,0.5555959999999998,0.555596,0.555596,0.5555960000000002,2.0014830212433605e-16,68.0,68.0,68.0,68.0,68.0,0.0,33.79000000000001,33.78999999999999,33.790000000000006,33.790000000000006,33.79000000000001,8.702335715267317e-15,16.79,9.99,13.15,12.91,9.99,2.560781130827076
1 -> 2,0.5543160000000003,0.5543159999999999,0.5543160000000001,0.5543160000000003,0.5543160000000003,1.3597399555105182e-16,68.0,68.0,68.0,68.0,68.0,0.0,33.79000000000001,33.78999999999999,33.790000000000006,33.790000000000006,33.79000000000001,8.702335715267317e-15,9.11,8.54,8.8475,8.870000000000001,8.54,0.20290083784942844
1 -> 2,0.5543160000000003,0.5543159999999999,0.5543160000000001,0.5543160000000003,0.5543160000000003,1.3597399555105182e-16,68.0,68.0,68.0,68.0,68.0,0.0,33.79000000000001,33.78999999999999,33.790000000000006,33.790000000000006,33.79000000000001,8.702335715267317e-15,9.11,8.54,8.8475,8.870000000000001,8.54,0.20290083784942844
1 -> 2,0.5543160000000003,0.5543159999999999,0.5543160000000001,0.5543160000000003,0.5543160000000003,1.3597399555105182e-16,68.0,68.0,68.0,68.0,68.0,0.0,33.79000000000001,33.78999999999999,33.790000000000006,33.790000000000006,33.79000000000001,8.702335715267317e-15,7.54,0.69,4.340000000000001,4.5649999999999995,0.69,2.5748689287029736
1 -> 2,0.5543160000000003,0.5543159999999999,0.5543160000000001,0.5543160000000003,0.5543160000000003,1.3597399555105182e-16,68.0,68.0,68.0,68.0,68.0,0.0,33.79000000000001,33.78999999999999,33.790000000000006,33.790000000000006,33.79000000000001,8.702335715267317e-15,7.54,0.69,4.340000000000001,4.5649999999999995,0.69,2.5748689287029736
1 -> 2,0.5543160000000003,0.5543159999999999,0.5543160000000001,0.5543160000000003,0.5543160000000003,1.3597399555105182e-16,68.0,68.0,68.0,68.0,68.0,0.0,33.79000000000001,33.78999999999999,33.790000000000006,33.790000000000006,33.79000000000001,8.702335715267317e-15,-1.97,-9.21,-5.6175,-5.645,-9.21,2.6913321515561774
1 -> 2,0.5543160000000003,0.5543159999999999,0.5543160000000001,0.5543160000000003,0.5543160000000003,1.3597399555105182e-16,68.0,68.0,68.0,68.0,68.0,0.0,33.79000000000001,33.78999999999999,33.790000000000006,33.790000000000006,33.79000000000001,8.702335715267317e-15,-1.97,-9.21,-5.6175,-5.645,-9.21,2.6913321515561774
1 -> 2,0.5543160000000003,0.5543159999999999,0.5543160000000001,0.5543160000000003,0.5543160000000003,1.3597399555105182e-16,68.0,68.0,68.0,68.0,68.0,0.0,33.79000000000001,33.78999999999999,33.790000000000006,33.790000000000006,33.79000000000001,8.702335715267317e-15,-11.84,-22.77,-17.01,-16.715,-22.77,4.082554347464342
1 -> 2,0.5543160000000003,0.5543159999999999,0.5543160000000001,0.5543160000000003,0.5543160000000003,1.3597399555105182e-16,68.0,68.0,68.0,68.0,68.0,0.0,33.79000000000001,33.78999999999999,33.790000000000006,33.790000000000006,33.79000000000001,8.702335715267317e-15,-11.84,-22.77,-17.01,-16.715,-22.77,4.082554347464342
1 -> 2,0.5543160000000003,0.5543159999999999,0.5543160000000001,0.5543160000000003,0.5543160000000003,1.3597399555105182e-16,68.0,68.0,68.0,68.0,68.0,0.0,33.79000000000001,33.78999999999999,33.790000000000006,33.790000000000006,33.79000000000001,8.702335715267317e-15,-27.52,-40.84,-34.5225,-34.865,-40.84,5.00445988594174
1 -> 2,0.5543160000000003,0.5543159999999999,0.5543160000000001,0.5543160000000003,0.5543160000000003,1.3597399555105182e-16,68.0,68.0,68.0,68.0,68.0,0.0,33.79000000000001,33.78999999999999,33.790000000000006,33.790000000000006,33.79000000000001,8.702335715267317e-15,-27.52,-40.84,-34.5225,-34.865,-40.84,5.00445988594174
1 -> 2,0.5543160000000003,0.5543159999999999,0.5543160000000001,0.5543160000000003,0.5543160000000003,1.3597399555105182e-16,68.0,68.0,68.0,68.0,68.0,0.0,33.79000000000001,33.78999999999999,33.790000000000006,33.790000000000006,33.79000000000001,8.702335715267317e-15,-31.22,-42.56,-38.325,-39.760000000000005,-42.56,4.469549753610536
1 -> 2,0.5543160000000003,0.5543159999999999,0.5543160000000001,0.5543160000000003,0.5543160000000003,1.3597399555105182e-16,68.0,68.0,68.0,68.0,68.0,0.0,33.79000000000001,33.78999999999999,33.790000000000006,33.790000000000006,33.79000000000001,8.702335715267317e-15,-31.22,-42.56,-38.325,-39.760000000000005,-42.56,4.469549753610536
1 -> 2,0.5543160000000003,0.5543159999999999,0.5543160000000001,0.5543160000000003,0.5543160000000003,1.3597399555105182e-16,68.0,68.0,68.0,68.0,68.0,0.0,33.79000000000001,33.78999999999999,33.790000000000006,33.790000000000006,33.79000000000001,8.702335715267317e-15,6.01,-22.52,-8.037500000000001,-7.82,-22.52,10.667587297510154
1 -> 2,0.5543160000000003,0.5543159999999999,0.5543160000000001,0.5543160000000003,0.5543160000000003,1.3597399555105182e-16,68.0,68.0,68.0,68.0,68.0,0.0,33.79000000000001,33.78999999999999,33.790000000000006,33.790000000000006,33.79000000000001,8.702335715267317e-15,6.01,-22.52,-8.037500000000001,-7.82,-22.52,10.667587297510154
1 -> 2,0.5543160000000003,0.5543159999999999,0.5543160000000001,0.5543160000000003,0.5543160000000003,1.3597399555105182e-16,68.0,68.0,68.0,68.0,68.0,0.0,33.79000000000001,33.78999999999999,33.790000000000006,33.790000000000006,33.79000000000001,8.702335715267317e-15,25.77,13.48,20.45,21.275,13.48,4.648811676116812
1 -> 2,0.5543160000000003,0.5543159999999999,0.5543160000000001,0.5543160000000003,0.5543160000000003,1.3597399555105182e-16,68.0,68.0,68.0,68.0,68.0,0.0,33.79000000000001,33.78999999999999,33.790000000000006,33.790000000000006,33.79000000000001,8.702335715267317e-15,25.77,13.48,20.45,21.275,13.48,4.648811676116812
1 -> 2,0.5543160000000003,0.5543159999999999,0.5543160000000001,0.5543160000000003,0.5543160000000003,1.3597399555105182e-16,70.1,70.1,70.1,70.1,70.1,0.0,33.79000000000001,33.78999999999999,33.790000000000006,33.790000000000006,33.79000000000001,8.702335715267317e-15,26.89,25.09,26.2575,26.525,25.09,0.7321671598753938
1 -> 2,0.5543160000000003,0.5543159999999999,0.5543160000000001,0.5543160000000003,0.5543160000000003,1.3597399555105182e-16,70.1,70.1,70.1,70.1,70.1,0.0,33.79000000000001,33.78999999999999,33.790000000000006,33.790000000000006,33.79000000000001,8.702335715267317e-15,26.89,25.09,26.2575,26.525,25.09,0.7321671598753938
1 -> 2,0.5543160000000003,0.5543159999999999,0.5543160000000001,0.5543160000000003,0.5543160000000003,1.3597399555105182e-16,70.1,70.1,70.1,70.1,70.1,0.0,33.79000000000001,33.78999999999999,33.790000000000006,33.790000000000006,33.79000000000001,8.702335715267317e-15,23.91,21.08,22.429999999999996,22.365,21.08,1.0552014025767789
1 -> 2,0.5543160000000003,0.5543159999999999,0.5543160000000001,0.5543160000000003,0.5543160000000003,1.3597399555105182e-16,70.1,70.1,70.1,70.1,70.1,0.0,33.79000000000001,33.78999999999999,33.790000000000006,33.790000000000006,33.79000000000001,8.702335715267317e-15,23.91,21.08,22.429999999999996,22.365,21.08,1.0552014025767789
1 -> 2,0.5543160000000003,0.5543159999999999,0.5543160000000001,0.5543160000000003,0.5543160000000003,1.3597399555105182e-16,70.1,70.1,70.1,70.1,70.1,0.0,33.79000000000001,33.78999999999999,33.790000000000006,33.790000000000006,33.79000000000001,8.702335715267317e-15,20.3,17.62,19.005,19.049999999999997,17.62,0.9983110737640846
1 -> 2,0.5543160000000003,0.5543159999999999,0.5543160000000001,0.5543160000000003,0.5543160000000003,1.3597399555105182e-16,70.1,70.1,70.1,70.1,70.1,0.0,33.79000000000001,33.78999999999999,33.790000000000006,33.790000000000006,33.79000000000001,8.702335715267317e-15,20.3,17.62,19.005,19.049999999999997,17.62,0.9983110737640846
1 -> 2,0.5543160000000003,0.5543159999999999,0.5543160000000001,0.5543160000000003,0.5543160000000003,1.3597399555105182e-16,70.1,70.1,70.1,70.1,70.1,0.0,33.79000000000001,33.78999999999999,33.790000000000006,33.790000000000006,33.79000000000001,8.702335715267317e-15,16.5,11.81,14.290000000000001,14.425,11.81,1.7515849965103032
1 -> 2,0.5543160000000003,0.5543159999999999,0.5543160000000001,0.5543160000000003,0.5543160000000003,1.3597399555105182e-16,70.1,70.1,70.1,70.1,70.1,0.0,33.79000000000001,33.78999999999999,33.790000000000006,33.790000000000006,33.79000000000001,8.702335715267317e-15,16.5,11.81,14.290000000000001,14.425,11.81,1.7515849965103032
1 -> 2,0.5568760000000003,0.5568759999999998,0.556876,0.5568760000000001,0.5568760000000003,2.0014830212433605e-16,70.1,70.1,70.1,70.1,70.1,0.0,33.79000000000001,33.78999999999999,33.790000000000006,33.790000000000006,33.79000000000001,8.702335715267317e-15,9.65,1.68,5.76,5.855,1.68,2.9755083599277623
1 -> 2,0.5568760000000003,0.5568759999999998,0.556876,0.5568760000000001,0.5568760000000003,2.0014830212433605e-16,70.1,70.1,70.1,70.1,70.1,0.0,33.79000000000001,33.78999999999999,33.790000000000006,33.790000000000006,33.79000000000001,8.702335715267317e-15,9.65,1.68,5.76,5.855,1.68,2.9755083599277623
1 -> 2,0.5568760000000003,0.5568759999999998,0.556876,0.5568760000000001,0.5568760000000003,2.0014830212433605e-16,70.1,70.1,70.1,70.1,70.1,0.0,33.79000000000001,33.78999999999999,33.790000000000006,33.790000000000006,33.79000000000001,8.702335715267317e-15,-1.2,-10.18,-5.6325,-5.574999999999999,-10.18,3.342329838600613
1 -> 2,0.5568760000000003,0.5568759999999998,0.556876,0.5568760000000001,0.5568760000000003,2.0014830212433605e-16,70.1,70.1,70.1,70.1,70.1,0.0,33.79000000000001,33.78999999999999,33.790000000000006,33.790000000000006,33.79000000000001,8.702335715267317e-15,-1.2,-10.18,-5.6325,-5.574999999999999,-10.18,3.342329838600613
1 -> 2,0.5568760000000003,0.5568759999999998,0.556876,0.5568760000000001,0.5568760000000003,2.0014830212433605e-16,70.1,70.1,70.1,70.1,70.1,0.0,33.79000000000001,33.78999999999999,33.790000000000006,33.790000000000006,33.79000000000001,8.702335715267317e-15,-13.66,-26.51,-19.93,-19.775,-26.51,4.801192560187522
1 -> 2,0.5568760000000003,0.5568759999999998,0.556876,0.5568760000000001,0.5568760000000003,2.0014830212433605e-16,70.1,70.1,70.1,70.1,70.1,0.0,33.79000000000001,33.78999999999999,33.790000000000006,33.790000000000006,33.79000000000001,8.702335715267317e-15,-13.66,-26.51,-19.93,-19.775,-26.51,4.801192560187522
1 -> 2,0.5568760000000003,0.5568759999999998,0.556876,0.5568760000000001,0.5568760000000003,2.0014830212433605e-16,70.1,70.1,70.1,70.1,70.1,0.0,33.79000000000001,33.78999999999999,33.790000000000006,33.790000000000006,33.79000000000001,8.702335715267317e-15,-30.73,-35.32,-33.5575,-34.09,-35.32,1.7116859378986553
1 -> 2,0.5568760000000003,0.5568759999999998,0.556876,0.5568760000000001,0.5568760000000003,2.0014830212433605e-16,70.1,70.1,70.1,70.1,70.1,0.0,33.79000000000001,33.78999999999999,33.790000000000006,33.790000000000006,33.79000000000001,8.702335715267317e-15,-30.73,-35.32,-33.5575,-34.09,-35.32,1.7116859378986553
1 -> 2,0.5555960000000002,0.5555959999999998,0.555596,0.555596,0.5555960000000002,2.0014830212433605e-16,70.1,70.1,70.1,70.1,70.1,0.0,33.79000000000001,33.78999999999999,33.790000000000006,33.790000000000006,33.79000000000001,8.702335715267317e-15,-5.43,-30.38,-18.715000000000003,-19.525,-30.38,9.369019425745686
1 -> 2,0.5555960000000002,0.5555959999999998,0.555596,0.555596,0.5555960000000002,2.0014830212433605e-16,70.1,70.1,70.1,70.1,70.1,0.0,33.79000000000001,33.78999999999999,33.790000000000006,33.790000000000006,33.79000000000001,8.702335715267317e-15,-5.43,-30.38,-18.715000000000003,-19.525,-30.38,9.369019425745686
1 -> 2,0.5555960000000002,0.5555959999999998,0.555596,0.555596,0.5555960000000002,2.0014830212433605e-16,70.1,70.1,70.1,70.1,70.1,0.0,33.79000000000001,33.78999999999999,33.790000000000006,33.790000000000006,33.79000000000001,8.702335715267317e-15,27.03,4.43,16.51,17.29,4.43,8.468261332764833
1 -> 2,0.5555960000000002,0.5555959999999998,0.555596,0.555596,0.5555960000000002,2.0014830212433605e-16,70.1,70.1,70.1,70.1,70.1,0.0,33.79000000000001,33.78999999999999,33.790000000000006,33.790000000000006,33.79000000000001,8.702335715267317e-15,27.03,4.43,16.51,17.29,4.43,8.468261332764833
1 -> 2,0.5555960000000002,0.5555959999999998,0.555596,0.555596,0.5555960000000002,2.0014830212433605e-16,70.1,70.1,70.1,70.1,70.1,0.0,33.79000000000001,33.78999999999999,33.790000000000006,33.790000000000006,33.79000000000001,8.702335715267317e-15,35.23,31.25,33.8775,34.515,31.25,1.6067883339133373
1 -> 2,0.5555960000000002,0.5555959999999998,0.555596,0.555596,0.5555960000000002,2.0014830212433605e-16,70.1,70.1,70.1,70.1,70.1,0.0,33.79000000000001,33.78999999999999,33.790000000000006,33.790000000000006,33.79000000000001,8.702335715267317e-15,35.23,31.25,33.8775,34.515,31.25,1.6067883339133373
1 -> 2,0.5555960000000002,0.5555959999999998,0.555596,0.555596,0.5555960000000002,2.0014830212433605e-16,70.1,70.1,70.1,70.1,70.1,0.0,33.79000000000001,33.78999999999999,33.790000000000006,33.790000000000006,33.79000000000001,8.702335715267317e-15,34.53,31.73,33.027499999999996,32.925,31.73,1.0597729709706702
1 -> 2,0.5555960000000002,0.5555959999999998,0.555596,0.555596,0.5555960000000002,2.0014830212433605e-16,70.1,70.1,70.1,70.1,70.1,0.0,33.79000000000001,33.78999999999999,33.790000000000006,33.790000000000006,33.79000000000001,8.702335715267317e-15,34.53,31.73,33.027499999999996,32.925,31.73,1.0597729709706702
1 -> 2,0.5555960000000002,0.5555959999999998,0.555596,0.555596,0.5555960000000002,2.0014830212433605e-16,70.1,70.1,70.1,70.1,70.1,0.0,33.79000000000001,33.78999999999999,33.790000000000006,33.790000000000006,33.79000000000001,8.702335715267317e-15,31.59,31.34,31.5,31.535,31.34,0.09669539802906844
1 -> 2,0.5555960000000002,0.5555959999999998,0.555596,0.555596,0.5555960000000002,2.0014830212433605e-16,70.1,70.1,70.1,70.1,70.1,0.0,33.79000000000001,33.78999999999999,33.790000000000006,33.790000000000006,33.79000000000001,8.702335715267317e-15,31.59,31.34,31.5,31.535,31.34,0.09669539802906844
1 -> 2,0.5555960000000002,0.5555959999999998,0.555596,0.555596,0.5555960000000002,2.0014830212433605e-16,70.1,70.1,70.1,70.1,70.1,0.0,33.79000000000001,33.78999999999999,33.790000000000006,33.790000000000006,33.79000000000001,8.702335715267317e-15,30.65,27.14,28.94,28.985,27.14,1.3157317355753029
1 -> 2,0.5555960000000002,0.5555959999999998,0.555596,0.555596,0.5555960000000002,2.0014830212433605e-16,70.1,70.1,70.1,70.1,70.1,0.0,33.79000000000001,33.78999999999999,33.790000000000006,33.790000000000006,33.79000000000001,8.702335715267317e-15,30.65,27.14,28.94,28.985,27.14,1.3157317355753029
1 -> 2,0.5555960000000002,0.5555959999999998,0.555596,0.555596,0.5555960000000002,2.0014830212433605e-16,70.1,70.1,70.1,70.1,70.1,0.0,33.79000000000001,33.78999999999999,33.790000000000006,33.790000000000006,33.79000000000001,8.702335715267317e-15,25.98,21.74,23.9975,24.134999999999998,21.74,1.5792145990966526
1 -> 2,0.5555960000000002,0.5555959999999998,0.555596,0.555596,0.5555960000000002,2.0014830212433605e-16,70.1,70.1,70.1,70.1,70.1,0.0,33.79000000000001,33.78999999999999,33.790000000000006,33.790000000000006,33.79000000000001,8.702335715267317e-15,25.98,21.74,23.9975,24.134999999999998,21.74,1.5792145990966526
1 -> 2,0.5555960000000002,0.5555959999999998,0.555596,0.555596,0.5555960000000002,2.0014830212433605e-16,70.1,70.1,70.1,70.1,70.1,0.0,33.79000000000001,33.78999999999999,33.790000000000006,33.790000000000006,33.79000000000001,8.702335715267317e-15,19.57,11.39,15.53,15.58,11.39,3.0572127829119125
1 -> 2,0.5555960000000002,0.5555959999999998,0.555596,0.555596,0.5555960000000002,2.0014830212433605e-16,70.1,70.1,70.1,70.1,70.1,0.0,33.79000000000001,33.78999999999999,33.790000000000006,33.790000000000006,33.79000000000001,8.702335715267317e-15,19.57,11.39,15.53,15.58,11.39,3.0572127829119125
1 -> 2,0.5581560000000002,0.5581559999999998,0.558156,0.5581560000000001,0.5581560000000002,2.0014830212433605e-16,72.27,72.27,72.27,72.27,72.27,0.0,33.77000000000002,33.76999999999999,33.77000000000001,33.77000000000001,33.77000000000002,1.3759600911837627e-14,8.82,2.11,5.4425,5.42,2.11,2.4923319903255265
1 -> 2,0.5581560000000002,0.5581559999999998,0.558156,0.5581560000000001,0.5581560000000002,2.0014830212433605e-16,72.27,72.27,72.27,72.27,72.27,0.0,33.77000000000002,33.76999999999999,33.77000000000001,33.77000000000001,33.77000000000002,1.3759600911837627e-14,8.82,2.11,5.4425,5.42,2.11,2.4923319903255265
1 -> 2,0.5581560000000002,0.5581559999999998,0.558156,0.5581560000000001,0.5581560000000002,2.0014830212433605e-16,72.27,72.27,72.27,72.27,72.27,0.0,33.77000000000002,33.76999999999999,33.77000000000001,33.77000000000001,33.77000000000002,1.3759600911837627e-14,-0.33,-8.86,-4.555,-4.515,-8.86,3.18672637670698
1 -> 2,0.5581560000000002,0.5581559999999998,0.558156,0.5581560000000001,0.5581560000000002,2.0014830212433605e-16,72.27,72.27,72.27,72.27,72.27,0.0,33.77000000000002,33.76999999999999,33.77000000000001,33.77000000000001,33.77000000000002,1.3759600911837627e-14,-0.33,-8.86,-4.555,-4.515,-8.86,3.18672637670698
1 -> 2,0.5581560000000002,0.5581559999999998,0.558156,0.5581560000000001,0.5581560000000002,2.0014830212433605e-16,72.27,72.27,72.27,72.27,72.27,0.0,33.77000000000002,33.76999999999999,33.77000000000001,33.77000000000001,33.77000000000002,1.3759600911837627e-14,-11.61,-19.28,-15.435,-15.425,-19.28,2.851091896098757
1 -> 2,0.5581560000000002,0.5581559999999998,0.558156,0.5581560000000001,0.5581560000000002,2.0014830212433605e-16,72.27,72.27,72.27,72.27,72.27,0.0,33.77000000000002,33.76999999999999,33.77000000000001,33.77000000000001,33.77000000000002,1.3759600911837627e-14,-11.61,-19.28,-15.435,-15.425,-19.28,2.851091896098757
1 -> 2,0.5581560000000002,0.5581559999999998,0.558156,0.5581560000000001,0.5581560000000002,2.0014830212433605e-16,72.27,72.27,72.27,72.27,72.27,0.0,33.77000000000002,33.76999999999999,33.77000000000001,33.77000000000001,33.77000000000002,1.3759600911837627e-14,-22.18,-33.5,-27.605,-27.37,-33.5,4.225999881684807
1 -> 2,0.5581560000000002,0.5581559999999998,0.558156,0.5581560000000001,0.5581560000000002,2.0014830212433605e-16,72.27,72.27,72.27,72.27,72.27,0.0,33.77000000000002,33.76999999999999,33.77000000000001,33.77000000000001,33.77000000000002,1.3759600911837627e-14,-22.18,-33.5,-27.605,-27.37,-33.5,4.225999881684807
1 -> 2,0.5568760000000003,0.5568759999999998,0.556876,0.5568760000000001,0.5568760000000003,2.0014830212433605e-16,72.27,72.27,72.27,72.27,72.27,0.0,33.77000000000002,33.76999999999999,33.77000000000001,33.77000000000001,33.77000000000002,1.3759600911837627e-14,-38.04,-47.99,-43.64,-44.265,-47.99,3.7940677379298338
1 -> 2,0.5568760000000003,0.5568759999999998,0.556876,0.5568760000000001,0.5568760000000003,2.0014830212433605e-16,72.27,72.27,72.27,72.27,72.27,0.0,33.77000000000002,33.76999999999999,33.77000000000001,33.77000000000001,33.77000000000002,1.3759600911837627e-14,-38.04,-47.99,-43.64,-44.265,-47.99,3.7940677379298338
1 -> 2,0.5568760000000003,0.5568759999999998,0.556876,0.5568760000000001,0.5568760000000003,2.0014830212433605e-16,72.27,72.27,72.27,72.27,72.27,0.0,33.77000000000002,33.76999999999999,33.77000000000001,33.77000000000001,33.77000000000002,1.3759600911837627e-14,-28.97,-47.41,-39.4475,-40.705,-47.41,7.011249442859667
1 -> 2,0.5568760000000003,0.5568759999999998,0.556876,0.5568760000000001,0.5568760000000003,2.0014830212433605e-16,72.27,72.27,72.27,72.27,72.27,0.0,33.77000000000002,33.76999999999999,33.77000000000001,33.77000000000001,33.77000000000002,1.3759600911837627e-14,-28.97,-47.41,-39.4475,-40.705,-47.41,7.011249442859667
1 -> 2,0.5568760000000003,0.5568759999999998,0.556876,0.5568760000000001,0.5568760000000003,2.0014830212433605e-16,72.27,72.27,72.27,72.27,72.27,0.0,33.77000000000002,33.76999999999999,33.77000000000001,33.77000000000001,33.77000000000002,1.3759600911837627e-14,8.3,-19.22,-5.0375,-4.614999999999999,-19.22,10.28243253077792
1 -> 2,0.5568760000000003,0.5568759999999998,0.556876,0.5568760000000001,0.5568760000000003,2.0014830212433605e-16,72.27,72.27,72.27,72.27,72.27,0.0,33.77000000000002,33.76999999999999,33.77000000000001,33.77000000000001,33.77000000000002,1.3759600911837627e-14,8.3,-19.22,-5.0375,-4.614999999999999,-19.22,10.28243253077792
1 -> 2,0.5568760000000003,0.5568759999999998,0.556876,0.5568760000000001,0.5568760000000003,2.0014830212433605e-16,72.27,72.27,72.27,72.27,72.27,0.0,33.77000000000002,33.76999999999999,33.77000000000001,33.77000000000001,33.77000000000002,1.3759600911837627e-14,27.15,15.24,21.9675,22.740000000000002,15.24,4.5064197263459596
1 -> 2,0.5568760000000003,0.5568759999999998,0.556876,0.5568760000000001,0.5568760000000003,2.0014830212433605e-16,72.27,72.27,72.27,72.27,72.27,0.0,33.77000000000002,33.76999999999999,33.77000000000001,33.77000000000001,33.77000000000002,1.3759600911837627e-14,27.15,15.24,21.9675,22.740000000000002,15.24,4.5064197263459596
1 -> 2,0.5632770000000002,0.5632769999999999,0.563277,0.5632770000000001,0.5632770000000002,1.6653345369377348e-16,72.27,72.27,72.27,72.27,72.27,0.0,33.77000000000002,33.76999999999999,33.77000000000001,33.77000000000001,33.77000000000002,1.3759600911837627e-14,28.1,25.88,27.2025,27.415,25.88,0.8744819895229412
1 -> 2,0.5632770000000002,0.5632769999999999,0.563277,0.5632770000000001,0.5632770000000002,1.6653345369377348e-16,72.27,72.27,72.27,72.27,72.27,0.0,33.77000000000002,33.76999999999999,33.77000000000001,33.77000000000001,33.77000000000002,1.3759600911837627e-14,28.1,25.88,27.2025,27.415,25.88,0.8744819895229412
1 -> 2,0.5632770000000002,0.5632769999999999,0.563277,0.5632770000000001,0.5632770000000002,1.6653345369377348e-16,72.27,72.27,72.27,72.27,72.27,0.0,33.77000000000002,33.76999999999999,33.77000000000001,33.77000000000001,33.77000000000002,1.3759600911837627e-14,25.97,24.87,25.29,25.16,24.87,0.41158231254513283
1 -> 2,0.5632770000000002,0.5632769999999999,0.563277,0.5632770000000001,0.5632770000000002,1.6653345369377348e-16,72.27,72.27,72.27,72.27,72.27,0.0,33.77000000000002,33.76999999999999,33.77000000000001,33.77000000000001,33.77000000000002,1.3759600911837627e-14,25.97,24.87,25.29,25.16,24.87,0.41158231254513283
1 -> 2,0.5632770000000002,0.5632769999999999,0.563277,0.5632770000000001,0.5632770000000002,1.6653345369377348e-16,72.27,72.27,72.27,72.27,72.27,0.0,33.77000000000002,33.76999999999999,33.77000000000001,33.77000000000001,33.77000000000002,1.3759600911837627e-14,28.73,26.9,27.96,28.105,26.9,0.7017478179517203
1 -> 2,0.5632770000000002,0.5632769999999999,0.563277,0.5632770000000001,0.5632770000000002,1.6653345369377348e-16,72.27,72.27,72.27,72.27,72.27,0.0,33.77000000000002,33.76999999999999,33.77000000000001,33.77000000000001,33.77000000000002,1.3759600911837627e-14,28.73,26.9,27.96,28.105,26.9,0.7017478179517203
1 -> 2,0.5632770000000002,0.5632769999999999,0.563277,0.5632770000000001,0.5632770000000002,1.6653345369377348e-16,72.27,72.27,72.27,72.27,72.27,0.0,33.77000000000002,33.76999999999999,33.77000000000001,33.77000000000001,33.77000000000002,1.3759600911837627e-14,28.61,26.18,27.53,27.665,26.18,0.9201358595337974
1 -> 2,0.5632770000000002,0.5632769999999999,0.563277,0.5632770000000001,0.5632770000000002,1.6653345369377348e-16,72.27,72.27,72.27,72.27,72.27,0.0,33.77000000000002,33.76999999999999,33.77000000000001,33.77000000000001,33.77000000000002,1.3759600911837627e-14,28.61,26.18,27.53,27.665,26.18,0.9201358595337974
1 -> 2,0.5581560000000002,0.5581559999999998,0.558156,0.5581560000000001,0.5581560000000002,2.0014830212433605e-16,72.27,72.27,72.27,72.27,72.27,0.0,33.77000000000002,33.76999999999999,33.77000000000001,33.77000000000001,33.77000000000002,1.3759600911837627e-14,25.09,22.19,23.612499999999997,23.585,22.19,1.0792676915390356
1 -> 2,0.5581560000000002,0.5581559999999998,0.558156,0.5581560000000001,0.5581560000000002,2.0014830212433605e-16,72.27,72.27,72.27,72.27,72.27,0.0,33.77000000000002,33.76999999999999,33.77000000000001,33.77000000000001,33.77000000000002,1.3759600911837627e-14,25.09,22.19,23.612499999999997,23.585,22.19,1.0792676915390356
1 -> 2,0.5581560000000002,0.5581559999999998,0.558156,0.5581560000000001,0.5581560000000002,2.0014830212433605e-16,72.27,72.27,72.27,72.27,72.27,0.0,33.77000000000002,33.76999999999999,33.77000000000001,33.77000000000001,33.77000000000002,1.3759600911837627e-14,21.18,17.31,19.2925,19.34,17.31,1.4464331128676504
1 -> 2,0.5581560000000002,0.5581559999999998,0.558156,0.5581560000000001,0.5581560000000002,2.0014830212433605e-16,72.27,72.27,72.27,72.27,72.27,0.0,33.77000000000002,33.76999999999999,33.77000000000001,33.77000000000001,33.77000000000002,1.3759600911837627e-14,21.18,17.31,19.2925,19.34,17.31,1.4464331128676504
1 -> 2,0.5581560000000002,0.5581559999999998,0.558156,0.5581560000000001,0.5581560000000002,2.0014830212433605e-16,72.27,72.27,72.27,72.27,72.27,0.0,33.77000000000002,33.76999999999999,33.77000000000001,33.77000000000001,33.77000000000002,1.3759600911837627e-14,15.99,12.23,14.1475,14.184999999999999,12.23,1.3948543830809006
1 -> 2,0.5581560000000002,0.5581559999999998,0.558156,0.5581560000000001,0.5581560000000002,2.0014830212433605e-16,72.27,72.27,72.27,72.27,72.27,0.0,33.77000000000002,33.76999999999999,33.77000000000001,33.77000000000001,33.77000000000002,1.3759600911837627e-14,15.99,12.23,14.1475,14.184999999999999,12.23,1.3948543830809006
1 -> 2,0.5581560000000002,0.5581559999999998,0.558156,0.5581560000000001,0.5581560000000002,2.0014830212433605e-16,72.27,72.27,72.27,72.27,72.27,0.0,33.77000000000002,33.76999999999999,33.77000000000001,33.77000000000001,33.77000000000002,1.3759600911837627e-14,10.42,1.04,6.039999999999999,6.35,1.04,3.515423160872671
1 -> 2,0.5581560000000002,0.5581559999999998,0.558156,0.5581560000000001,0.5581560000000002,2.0014830212433605e-16,72.27,72.27,72.27,72.27,72.27,0.0,33.77000000000002,33.76999999999999,33.77000000000001,33.77000000000001,33.77000000000002,1.3759600911837627e-14,10.42,1.04,6.039999999999999,6.35,1.04,3.515423160872671
1 -> 2,0.5581560000000002,0.5581559999999998,0.558156,0.5581560000000001,0.5581560000000002,2.0014830212433605e-16,74.08,74.08,74.08,74.08,74.08,0.0,33.77000000000002,33.76999999999999,33.77000000000001,33.77000000000001,33.77000000000002,1.3759600911837627e-14,-2.78,-8.68,-6.4625,-7.195,-8.68,2.340174940041876
1 -> 2,0.5581560000000002,0.5581559999999998,0.558156,0.5581560000000001,0.5581560000000002,2.0014830212433605e-16,74.08,74.08,74.08,74.08,74.08,0.0,33.77000000000002,33.76999999999999,33.77000000000001,33.77000000000001,33.77000000000002,1.3759600911837627e-14,-2.78,-8.68,-6.4625,-7.195,-8.68,2.340174940041876
1 -> 2,0.5581560000000002,0.5581559999999998,0.558156,0.5581560000000001,0.5581560000000002,2.0014830212433605e-16,74.08,74.08,74.08,74.08,74.08,0.0,33.77000000000002,33.76999999999999,33.77000000000001,33.77000000000001,33.77000000000002,1.3759600911837627e-14,9.55,-6.93,0.5975000000000001,-0.11500000000000021,-6.93,6.2120261388696685
1 -> 2,0.5581560000000002,0.5581559999999998,0.558156,0.5581560000000001,0.5581560000000002,2.0014830212433605e-16,74.08,74.08,74.08,74.08,74.08,0.0,33.77000000000002,33.76999999999999,33.77000000000001,33.77000000000001,33.77000000000002,1.3759600911837627e-14,9.55,-6.93,0.5975000000000001,-0.11500000000000021,-6.93,6.2120261388696685
1 -> 2,0.5581560000000002,0.5581559999999998,0.558156,0.5581560000000001,0.5581560000000002,2.0014830212433605e-16,74.08,74.08,74.08,74.08,74.08,0.0,33.77000000000002,33.76999999999999,33.77000000000001,33.77000000000001,33.77000000000002,1.3759600911837627e-14,30.43,16.47,24.215000000000003,24.98,16.47,5.2681946623108
1 -> 2,0.5581560000000002,0.5581559999999998,0.558156,0.5581560000000001,0.5581560000000002,2.0014830212433605e-16,74.08,74.08,74.08,74.08,74.08,0.0,33.77000000000002,33.76999999999999,33.77000000000001,33.77000000000001,33.77000000000002,1.3759600911837627e-14,30.43,16.47,24.215000000000003,24.98,16.47,5.2681946623108
1 -> 2,0.5581560000000002,0.5581559999999998,0.558156,0.5581560000000001,0.5581560000000002,2.0014830212433605e-16,74.08,74.08,74.08,74.08,74.08,0.0,33.77000000000002,33.76999999999999,33.77000000000001,33.77000000000001,33.77000000000002,1.3759600911837627e-14,32.39,30.88,31.8025,31.97,30.88,0.5599274506576729
1 -> 2,0.5581560000000002,0.5581559999999998,0.558156,0.5581560000000001,0.5581560000000002,2.0014830212433605e-16,74.08,74.08,74.08,74.08,74.08,0.0,33.77000000000002,33.76999999999999,33.77000000000001,33.77000000000001,33.77000000000002,1.3759600911837627e-14,32.39,30.88,31.8025,31.97,30.88,0.5599274506576729
1 -> 2,0.5581560000000002,0.5581559999999998,0.558156,0.5581560000000001,0.5581560000000002,2.0014830212433605e-16,74.08,74.08,74.08,74.08,74.08,0.0,33.77000000000002,33.76999999999999,33.77000000000001,33.77000000000001,33.77000000000002,1.3759600911837627e-14,29.24,20.81,25.29,25.555,20.81,3.1573168988874083
1 -> 2,0.5581560000000002,0.5581559999999998,0.558156,0.5581560000000001,0.5581560000000002,2.0014830212433605e-16,74.08,74.08,74.08,74.08,74.08,0.0,33.77000000000002,33.76999999999999,33.77000000000001,33.77000000000001,33.77000000000002,1.3759600911837627e-14,29.24,20.81,25.29,25.555,20.81,3.1573168988874083
1 -> 2,0.5581560000000002,0.5581559999999998,0.558156,0.5581560000000001,0.5581560000000002,2.0014830212433605e-16,74.08,74.08,74.08,74.08,74.08,0.0,33.77000000000002,33.76999999999999,33.77000000000001,33.77000000000001,33.77000000000002,1.3759600911837627e-14,17.29,8.14,12.524999999999999,12.335,8.14,3.417532004239316
1 -> 2,0.5581560000000002,0.5581559999999998,0.558156,0.5581560000000001,0.5581560000000002,2.0014830212433605e-16,74.08,74.08,74.08,74.08,74.08,0.0,33.77000000000002,33.76999999999999,33.77000000000001,33.77000000000001,33.77000000000002,1.3759600911837627e-14,17.29,8.14,12.524999999999999,12.335,8.14,3.417532004239316
1 -> 2,0.5581560000000002,0.5581559999999998,0.558156,0.5581560000000001,0.5581560000000002,2.0014830212433605e-16,74.08,74.08,74.08,74.08,74.08,0.0,33.77000000000002,33.76999999999999,33.77000000000001,33.77000000000001,33.77000000000002,1.3759600911837627e-14,5.81,-1.48,2.2775,2.3899999999999997,-1.48,2.7114329698519195
1 -> 2,0.5581560000000002,0.5581559999999998,0.558156,0.5581560000000001,0.5581560000000002,2.0014830212433605e-16,74.08,74.08,74.08,74.08,74.08,0.0,33.77000000000002,33.76999999999999,33.77000000000001,33.77000000000001,33.77000000000002,1.3759600911837627e-14,5.81,-1.48,2.2775,2.3899999999999997,-1.48,2.7114329698519195
1 -> 2,0.5581560000000002,0.5581559999999998,0.558156,0.5581560000000001,0.5581560000000002,2.0014830212433605e-16,74.08,74.08,74.08,74.08,74.08,0.0,33.77000000000002,33.76999999999999,33.77000000000001,33.77000000000001,33.77000000000002,1.3759600911837627e-14,-4.51,-14.88,-9.637500000000001,-9.58,-14.88,3.869970122623688
1 -> 2,0.5581560000000002,0.5581559999999998,0.558156,0.5581560000000001,0.5581560000000002,2.0014830212433605e-16,74.08,74.08,74.08,74.08,74.08,0.0,33.77000000000002,33.76999999999999,33.77000000000001,33.77000000000001,33.77000000000002,1.3759600911837627e-14,-4.51,-14.88,-9.637500000000001,-9.58,-14.88,3.869970122623688
1 -> 2,0.5594360000000003,0.5594359999999999,0.559436,0.5594360000000002,0.5594360000000003,1.6653345369377348e-16,74.08,74.08,74.08,74.08,74.08,0.0,33.77000000000002,33.76999999999999,33.77000000000001,33.77000000000001,33.77000000000002,1.3759600911837627e-14,-18.44,-29.0,-23.7325,-23.745,-29.0,3.9366189490475194
1 -> 2,0.5594360000000003,0.5594359999999999,0.559436,0.5594360000000002,0.5594360000000003,1.6653345369377348e-16,74.08,74.08,74.08,74.08,74.08,0.0,33.77000000000002,33.76999999999999,33.77000000000001,33.77000000000001,33.77000000000002,1.3759600911837627e-14,-18.44,-29.0,-23.7325,-23.745,-29.0,3.9366189490475194
1 -> 2,0.5594360000000003,0.5594359999999999,0.559436,0.5594360000000002,0.5594360000000003,1.6653345369377348e-16,74.08,74.08,74.08,74.08,74.08,0.0,33.77000000000002,33.76999999999999,33.77000000000001,33.77000000000001,33.77000000000002,1.3759600911837627e-14,-32.4,-40.97,-36.86,-37.035,-40.97,3.202381926004454
1 -> 2,0.5594360000000003,0.5594359999999999,0.559436,0.5594360000000002,0.5594360000000003,1.6653345369377348e-16,74.08,74.08,74.08,74.08,74.08,0.0,33.77000000000002,33.76999999999999,33.77000000000001,33.77000000000001,33.77000000000002,1.3759600911837627e-14,-32.4,-40.97,-36.86,-37.035,-40.97,3.202381926004454
1 -> 2,0.5594360000000003,0.5594359999999999,0.559436,0.5594360000000002,0.5594360000000003,1.6653345369377348e-16,74.08,74.08,74.08,74.08,74.08,0.0,33.77000000000002,33.76999999999999,33.77000000000001,33.77000000000001,33.77000000000002,1.3759600911837627e-14,-43.07,-48.17,-45.6425,-45.665,-48.17,1.8931108657445288
1 -> 2,0.5594360000000003,0.5594359999999999,0.559436,0.5594360000000002,0.5594360000000003,1.6653345369377348e-16,74.08,74.08,74.08,74.08,74.08,0.0,33.77000000000002,33.76999999999999,33.77000000000001,33.77000000000001,33.77000000000002,1.3759600911837627e-14,-43.07,-48.17,-45.6425,-45.665,-48.17,1.8931108657445288
1 -> 2,0.5594360000000003,0.5594359999999999,0.559436,0.5594360000000002,0.5594360000000003,1.6653345369377348e-16,74.08,74.08,74.08,74.08,74.08,0.0,33.77000000000002,33.76999999999999,33.77000000000001,33.77000000000001,33.77000000000002,1.3759600911837627e-14,-50.12,-58.54,-54.11,-53.89,-58.54,3.1493888295985313
1 -> 2,0.5594360000000003,0.5594359999999999,0.559436,0.5594360000000002,0.5594360000000003,1.6653345369377348e-16,74.08,74.08,74.08,74.08,74.08,0.0,33.77000000000002,33.76999999999999,33.77000000000001,33.77000000000001,33.77000000000002,1.3759600911837627e-14,-50.12,-58.54,-54.11,-53.89,-58.54,3.1493888295985313
1 -> 2,0.5594360000000003,0.5594359999999999,0.559436,0.5594360000000002,0.5594360000000003,1.6653345369377348e-16,74.08,74.08,74.08,74.08,74.08,0.0,33.77000000000002,33.76999999999999,33.77000000000001,33.77000000000001,33.77000000000002,1.3759600911837627e-14,-61.94,-67.79,-65.515,-66.16499999999999,-67.79,2.30452272716066
