PHASE,EDA_MAX,EDA_MIN,EDA_MEAN,EDA_MEDIAN,EDA_MODE,EDA_SD,EDA_DIFF,HR_MAX,HR_MIN,HR_MEAN,HR_MEDIAN,HR_MODE,HR_SD,HR_DIFF,SKT_MAX,SKT_MIN,SKT_MEAN,SKT_MEDIAN,SKT_MODE,SKT_SD,SKT_DIFF,BVP_MAX,BVP_MIN,BVP_MEAN,BVP_MEDIAN,BVP_MODE,BVP_SD,BVP_DIFF
1 -> 2,0.04354400000000001,0.04354399999999999,0.043544000000000006,0.043544,0.04354399999999999,1.0971354589302191e-17,0.0,87.0,87.0,87.0,87.0,87.0,0.0,0.0,33.83000000000001,33.829999999999984,33.83,33.83,33.83000000000001,1.2809491335957507e-14,2.3684757858670005e-15,19.91,18.87,19.4575,19.525,18.87,0.3858351331851465,-0.1733333333333332
1 -> 2,0.04354400000000001,0.04354399999999999,0.043544000000000006,0.043544,0.04354399999999999,1.0971354589302191e-17,0.0,87.0,87.0,87.0,87.0,87.0,0.0,0.0,33.83000000000001,33.829999999999984,33.83,33.83,33.83000000000001,1.2809491335957507e-14,2.3684757858670005e-15,19.91,18.87,19.4575,19.525,18.87,0.3858351331851465,-0.1733333333333332
1 -> 2,0.04354400000000001,0.04354399999999999,0.043544000000000006,0.043544,0.04354399999999999,1.0971354589302191e-17,0.0,87.0,87.0,87.0,87.0,87.0,0.0,0.0,33.83000000000001,33.829999999999984,33.83,33.83,33.83000000000001,1.2809491335957507e-14,2.3684757858670005e-15,17.76,14.16,15.932500000000001,15.905,14.16,1.34531362514471,-1.2000000000000004
1 -> 2,0.04354400000000001,0.04354399999999999,0.043544000000000006,0.043544,0.04354399999999999,1.0971354589302191e-17,0.0,87.0,87.0,87.0,87.0,87.0,0.0,0.0,33.83000000000001,33.829999999999984,33.83,33.83,33.83000000000001,1.2809491335957507e-14,2.3684757858670005e-15,17.76,14.16,15.932500000000001,15.905,14.16,1.34531362514471,-1.2000000000000004
1 -> 2,0.04354400000000001,0.04354399999999999,0.043544000000000006,0.043544,0.04354399999999999,1.0971354589302191e-17,0.0,87.0,87.0,87.0,87.0,87.0,0.0,0.0,33.83000000000001,33.829999999999984,33.83,33.83,33.83000000000001,1.2809491335957507e-14,2.3684757858670005e-15,13.22,11.65,12.344999999999999,12.254999999999999,11.65,0.5884088714490973,-0.5233333333333334
1 -> 2,0.04354400000000001,0.04354399999999999,0.043544000000000006,0.043544,0.04354399999999999,1.0971354589302191e-17,0.0,87.0,87.0,87.0,87.0,87.0,0.0,0.0,33.83000000000001,33.829999999999984,33.83,33.83,33.83000000000001,1.2809491335957507e-14,2.3684757858670005e-15,13.22,11.65,12.344999999999999,12.254999999999999,11.65,0.5884088714490973,-0.5233333333333334
1 -> 2,0.04354400000000001,0.04354399999999999,0.043544000000000006,0.043544,0.04354399999999999,1.0971354589302191e-17,0.0,87.0,87.0,87.0,87.0,87.0,0.0,0.0,33.83000000000001,33.829999999999984,33.83,33.83,33.83000000000001,1.2809491335957507e-14,2.3684757858670005e-15,11.25,8.13,9.8825,10.075,8.13,1.1774840763254504,-1.0399999999999998
1 -> 2,0.04354400000000001,0.04354399999999999,0.043544000000000006,0.043544,0.04354399999999999,1.0971354589302191e-17,0.0,87.0,87.0,87.0,87.0,87.0,0.0,0.0,33.83000000000001,33.829999999999984,33.83,33.83,33.83000000000001,1.2809491335957507e-14,2.3684757858670005e-15,11.25,8.13,9.8825,10.075,8.13,1.1774840763254504,-1.0399999999999998
1 -> 2,0.04354400000000001,0.04354399999999999,0.043544000000000006,0.043544,0.04354399999999999,1.0971354589302191e-17,0.0,87.0,87.0,87.0,87.0,87.0,0.0,0.0,33.83000000000001,33.829999999999984,33.83,33.83,33.83000000000001,1.2809491335957507e-14,2.3684757858670005e-15,6.38,0.06,3.2800000000000002,3.34,0.06,2.3575835085951886,-2.1066666666666665
1 -> 2,0.04354400000000001,0.04354399999999999,0.043544000000000006,0.043544,0.04354399999999999,1.0971354589302191e-17,0.0,87.0,87.0,87.0,87.0,87.0,0.0,0.0,33.83000000000001,33.829999999999984,33.83,33.83,33.83000000000001,1.2809491335957507e-14,2.3684757858670005e-15,6.38,0.06,3.2800000000000002,3.34,0.06,2.3575835085951886,-2.1066666666666665
1 -> 2,0.04354400000000001,0.04354399999999999,0.043544000000000006,0.043544,0.04354399999999999,1.0971354589302191e-17,0.0,87.0,87.0,87.0,87.0,87.0,0.0,0.0,33.83000000000001,33.829999999999984,33.83,33.83,33.83000000000001,1.2809491335957507e-14,2.3684757858670005e-15,-2.29,-10.46,-6.265000000000001,-6.154999999999999,-10.46,3.045279133347221,-2.723333333333334
1 -> 2,0.04354400000000001,0.04354399999999999,0.043544000000000006,0.043544,0.04354399999999999,1.0971354589302191e-17,0.0,87.0,87.0,87.0,87.0,87.0,0.0,0.0,33.83000000000001,33.829999999999984,33.83,33.83,33.83000000000001,1.2809491335957507e-14,2.3684757858670005e-15,-2.29,-10.46,-6.265000000000001,-6.154999999999999,-10.46,3.045279133347221,-2.723333333333334
1 -> 2,0.04354400000000001,0.04354399999999999,0.043544000000000006,0.043544,0.04354399999999999,1.0971354589302191e-17,0.0,87.0,87.0,87.0,87.0,87.0,0.0,0.0,33.83000000000001,33.829999999999984,33.83,33.83,33.83000000000001,1.2809491335957507e-14,2.3684757858670005e-15,-13.66,-23.8,-18.759999999999998,-18.79,-23.8,3.7881129866993146,-3.3800000000000003
1 -> 2,0.04354400000000001,0.04354399999999999,0.043544000000000006,0.043544,0.04354399999999999,1.0971354589302191e-17,0.0,87.0,87.0,87.0,87.0,87.0,0.0,0.0,33.83000000000001,33.829999999999984,33.83,33.83,33.83000000000001,1.2809491335957507e-14,2.3684757858670005e-15,-13.66,-23.8,-18.759999999999998,-18.79,-23.8,3.7881129866993146,-3.3800000000000003
1 -> 2,0.04354400000000001,0.04354399999999999,0.043544000000000006,0.043544,0.04354399999999999,1.0971354589302191e-17,0.0,87.0,87.0,87.0,87.0,87.0,0.0,0.0,33.83000000000001,33.829999999999984,33.83,33.83,33.83000000000001,1.2809491335957507e-14,2.3684757858670005e-15,-26.51,-28.34,-27.4225,-27.42,-28.34,0.8410818925645701,-0.049999999999999524
1 -> 2,0.04354400000000001,0.04354399999999999,0.043544000000000006,0.043544,0.04354399999999999,1.0971354589302191e-17,0.0,87.0,87.0,87.0,87.0,87.0,0.0,0.0,33.83000000000001,33.829999999999984,33.83,33.83,33.83000000000001,1.2809491335957507e-14,2.3684757858670005e-15,-26.51,-28.34,-27.4225,-27.42,-28.34,0.8410818925645701,-0.049999999999999524
1 -> 2,0.04226400000000002,0.04226399999999999,0.04226400000000001,0.04226400000000001,0.04226400000000002,1.1506853769672337e-17,6.938893903907228e-18,87.0,87.0,87.0,87.0,87.0,0.0,0.0,33.83000000000001,33.829999999999984,33.83,33.83,33.83000000000001,1.2809491335957507e-14,2.3684757858670005e-15,-4.72,-23.07,-14.2625,-14.629999999999999,-23.07,6.876159447685896,6.116666666666667
1 -> 2,0.04226400000000002,0.04226399999999999,0.04226400000000001,0.04226400000000001,0.04226400000000002,1.1506853769672337e-17,6.938893903907228e-18,87.0,87.0,87.0,87.0,87.0,0.0,0.0,33.83000000000001,33.829999999999984,33.83,33.83,33.83000000000001,1.2809491335957507e-14,2.3684757858670005e-15,-4.72,-23.07,-14.2625,-14.629999999999999,-23.07,6.876159447685896,6.116666666666667
1 -> 2,0.04226400000000002,0.04226399999999999,0.04226400000000001,0.04226400000000001,0.04226400000000002,1.1506853769672337e-17,6.938893903907228e-18,87.0,87.0,87.0,87.0,87.0,0.0,0.0,33.83000000000001,33.829999999999984,33.83,33.83,33.83000000000001,1.2809491335957507e-14,2.3684757858670005e-15,14.32,1.67,8.635,9.275,1.67,4.761325970777468,4.216666666666667
1 -> 2,0.04226400000000002,0.04226399999999999,0.04226400000000001,0.04226400000000001,0.04226400000000002,1.1506853769672337e-17,6.938893903907228e-18,87.0,87.0,87.0,87.0,87.0,0.0,0.0,33.83000000000001,33.829999999999984,33.83,33.83,33.83000000000001,1.2809491335957507e-14,2.3684757858670005e-15,14.32,1.67,8.635,9.275,1.67,4.761325970777468,4.216666666666667
1 -> 2,0.04226400000000002,0.04226399999999999,0.04226400000000001,0.04226400000000001,0.04226400000000002,1.1506853769672337e-17,6.938893903907228e-18,87.0,87.0,87.0,87.0,87.0,0.0,0.0,33.83000000000001,33.829999999999984,33.83,33.83,33.83000000000001,1.2809491335957507e-14,2.3684757858670005e-15,16.6,15.42,16.085,16.16,15.42,0.4405961870012043,-0.19000000000000009
1 -> 2,0.04226400000000002,0.04226399999999999,0.04226400000000001,0.04226400000000001,0.04226400000000002,1.1506853769672337e-17,6.938893903907228e-18,87.0,87.0,87.0,87.0,87.0,0.0,0.0,33.83000000000001,33.829999999999984,33.83,33.83,33.83000000000001,1.2809491335957507e-14,2.3684757858670005e-15,16.6,15.42,16.085,16.16,15.42,0.4405961870012043,-0.19000000000000009
1 -> 2,0.04226400000000002,0.04226399999999999,0.04226400000000001,0.04226400000000001,0.04226400000000002,1.1506853769672337e-17,6.938893903907228e-18,87.0,87.0,87.0,87.0,87.0,0.0,0.0,33.83000000000001,33.829999999999984,33.83,33.83,33.83000000000001,1.2809491335957507e-14,2.3684757858670005e-15,14.09,9.8,11.8875,11.83,9.8,1.607814899172165,-1.4299999999999997
1 -> 2,0.04226400000000002,0.04226399999999999,0.04226400000000001,0.04226400000000001,0.04226400000000002,1.1506853769672337e-17,6.938893903907228e-18,87.0,87.0,87.0,87.0,87.0,0.0,0.0,33.83000000000001,33.829999999999984,33.83,33.83,33.83000000000001,1.2809491335957507e-14,2.3684757858670005e-15,14.09,9.8,11.8875,11.83,9.8,1.607814899172165,-1.4299999999999997
1 -> 2,0.04482500000000001,0.044825000000000004,0.044825000000000004,0.04482500000000001,0.04482500000000001,6.009258394948637e-18,2.3129646346357427e-18,87.0,87.0,87.0,87.0,87.0,0.0,0.0,33.83000000000001,33.829999999999984,33.83,33.83,33.83000000000001,1.2809491335957507e-14,2.3684757858670005e-15,8.87,8.24,8.459999999999999,8.364999999999998,8.24,0.24217762076624644,-0.16666666666666666
1 -> 2,0.04482500000000001,0.044825000000000004,0.044825000000000004,0.04482500000000001,0.04482500000000001,6.009258394948637e-18,2.3129646346357427e-18,87.0,87.0,87.0,87.0,87.0,0.0,0.0,33.83000000000001,33.829999999999984,33.83,33.83,33.83000000000001,1.2809491335957507e-14,2.3684757858670005e-15,8.87,8.24,8.459999999999999,8.364999999999998,8.24,0.24217762076624644,-0.16666666666666666
1 -> 2,0.04482500000000001,0.044825000000000004,0.044825000000000004,0.04482500000000001,0.04482500000000001,6.009258394948637e-18,2.3129646346357427e-18,87.0,87.0,87.0,87.0,87.0,0.0,0.0,33.83000000000001,33.829999999999984,33.83,33.83,33.83000000000001,1.2809491335957507e-14,2.3684757858670005e-15,8.48,6.58,7.76,7.99,6.58,0.7431016081263722,-0.6333333333333334
1 -> 2,0.04482500000000001,0.044825000000000004,0.044825000000000004,0.04482500000000001,0.04482500000000001,6.009258394948637e-18,2.3129646346357427e-18,87.0,87.0,87.0,87.0,87.0,0.0,0.0,33.83000000000001,33.829999999999984,33.83,33.83,33.83000000000001,1.2809491335957507e-14,2.3684757858670005e-15,8.48,6.58,7.76,7.99,6.58,0.7431016081263722,-0.6333333333333334
1 -> 2,0.04482500000000001,0.044825000000000004,0.044825000000000004,0.04482500000000001,0.04482500000000001,6.009258394948637e-18,2.3129646346357427e-18,87.0,87.0,87.0,87.0,87.0,0.0,0.0,33.83000000000001,33.829999999999984,33.83,33.83,33.83000000000001,1.2809491335957507e-14,2.3684757858670005e-15,5.09,-0.51,2.3699999999999997,2.45,-0.51,2.0877859085643817,-1.8666666666666665
1 -> 2,0.04482500000000001,0.044825000000000004,0.044825000000000004,0.04482500000000001,0.04482500000000001,6.009258394948637e-18,2.3129646346357427e-18,87.0,87.0,87.0,87.0,87.0,0.0,0.0,33.83000000000001,33.829999999999984,33.83,33.83,33.83000000000001,1.2809491335957507e-14,2.3684757858670005e-15,5.09,-0.51,2.3699999999999997,2.45,-0.51,2.0877859085643817,-1.8666666666666665
1 -> 2,0.04482500000000001,0.044825000000000004,0.044825000000000004,0.04482500000000001,0.04482500000000001,6.009258394948637e-18,2.3129646346357427e-18,87.0,87.0,87.0,87.0,87.0,0.0,0.0,33.83000000000001,33.829999999999984,33.83,33.83,33.83000000000001,1.2809491335957507e-14,2.3684757858670005e-15,-2.78,-10.83,-6.737499999999999,-6.67,-10.83,3.0049407232090286,-2.6833333333333336
1 -> 2,0.04482500000000001,0.044825000000000004,0.044825000000000004,0.04482500000000001,0.04482500000000001,6.009258394948637e-18,2.3129646346357427e-18,87.0,87.0,87.0,87.0,87.0,0.0,0.0,33.83000000000001,33.829999999999984,33.83,33.83,33.83000000000001,1.2809491335957507e-14,2.3684757858670005e-15,-2.78,-10.83,-6.737499999999999,-6.67,-10.83,3.0049407232090286,-2.6833333333333336
1 -> 2,0.04354400000000001,0.04354399999999999,0.043544000000000006,0.043544,0.04354399999999999,1.0971354589302191e-17,0.0,86.5,86.5,86.5,86.5,86.5,0.0,0.0,33.81000000000002,33.80999999999998,33.81,33.81,33.81000000000002,1.6280579355608324e-14,2.3684757858670005e-15,-13.64,-22.79,-18.130000000000003,-18.045,-22.79,3.411062884204863,-3.0499999999999994
1 -> 2,0.04354400000000001,0.04354399999999999,0.043544000000000006,0.043544,0.04354399999999999,1.0971354589302191e-17,0.0,86.5,86.5,86.5,86.5,86.5,0.0,0.0,33.81000000000002,33.80999999999998,33.81,33.81,33.81000000000002,1.6280579355608324e-14,2.3684757858670005e-15,-13.64,-22.79,-18.130000000000003,-18.045,-22.79,3.411062884204863,-3.0499999999999994
1 -> 2,0.04354400000000001,0.04354399999999999,0.043544000000000006,0.043544,0.04354399999999999,1.0971354589302191e-17,0.0,86.5,86.5,86.5,86.5,86.5,0.0,0.0,33.81000000000002,33.80999999999998,33.81,33.81,33.81000000000002,1.6280579355608324e-14,2.3684757858670005e-15,-25.9,-29.25,-27.905,-28.235,-29.25,1.2303759588028376,-0.7566666666666677
1 -> 2,0.04354400000000001,0.04354399999999999,0.043544000000000006,0.043544,0.04354399999999999,1.0971354589302191e-17,0.0,86.5,86.5,86.5,86.5,86.5,0.0,0.0,33.81000000000002,33.80999999999998,33.81,33.81,33.81000000000002,1.6280579355608324e-14,2.3684757858670005e-15,-25.9,-29.25,-27.905,-28.235,-29.25,1.2303759588028376,-0.7566666666666677
1 -> 2,0.04354400000000001,0.04354399999999999,0.043544000000000006,0.043544,0.04354399999999999,1.0971354589302191e-17,0.0,86.5,86.5,86.5,86.5,86.5,0.0,0.0,33.81000000000002,33.80999999999998,33.81,33.81,33.81000000000002,1.6280579355608324e-14,2.3684757858670005e-15,-6.21,-24.87,-15.987500000000002,-16.435000000000002,-24.87,6.996950675115555,6.22
1 -> 2,0.04354400000000001,0.04354399999999999,0.043544000000000006,0.043544,0.04354399999999999,1.0971354589302191e-17,0.0,86.5,86.5,86.5,86.5,86.5,0.0,0.0,33.81000000000002,33.80999999999998,33.81,33.81,33.81000000000002,1.6280579355608324e-14,2.3684757858670005e-15,-6.21,-24.87,-15.987500000000002,-16.435000000000002,-24.87,6.996950675115555,6.22
1 -> 2,0.04354400000000001,0.04354399999999999,0.043544000000000006,0.043544,0.04354399999999999,1.0971354589302191e-17,0.0,86.5,86.5,86.5,86.5,86.5,0.0,0.0,33.81000000000002,33.80999999999998,33.81,33.81,33.81000000000002,1.6280579355608324e-14,2.3684757858670005e-15,15.33,0.6,8.58,9.195,0.6,5.5328428497473165,4.91
1 -> 2,0.04354400000000001,0.04354399999999999,0.043544000000000006,0.043544,0.04354399999999999,1.0971354589302191e-17,0.0,86.5,86.5,86.5,86.5,86.5,0.0,0.0,33.81000000000002,33.80999999999998,33.81,33.81,33.81000000000002,1.6280579355608324e-14,2.3684757858670005e-15,15.33,0.6,8.58,9.195,0.6,5.5328428497473165,4.91
1 -> 2,0.04226400000000002,0.04226399999999999,0.04226400000000001,0.04226400000000001,0.04226400000000002,1.1506853769672337e-17,6.938893903907228e-18,86.5,86.5,86.5,86.5,86.5,0.0,0.0,33.81000000000002,33.80999999999998,33.81,33.81,33.81000000000002,1.6280579355608324e-14,2.3684757858670005e-15,18.25,16.69,17.572499999999998,17.674999999999997,16.69,0.5760371081796722,-0.2666666666666657
1 -> 2,0.04226400000000002,0.04226399999999999,0.04226400000000001,0.04226400000000001,0.04226400000000002,1.1506853769672337e-17,6.938893903907228e-18,86.5,86.5,86.5,86.5,86.5,0.0,0.0,33.81000000000002,33.80999999999998,33.81,33.81,33.81000000000002,1.6280579355608324e-14,2.3684757858670005e-15,18.25,16.69,17.572499999999998,17.674999999999997,16.69,0.5760371081796722,-0.2666666666666657
1 -> 2,0.04226400000000002,0.04226399999999999,0.04226400000000001,0.04226400000000001,0.04226400000000002,1.1506853769672337e-17,6.938893903907228e-18,86.5,86.5,86.5,86.5,86.5,0.0,0.0,33.81000000000002,33.80999999999998,33.81,33.81,33.81000000000002,1.6280579355608324e-14,2.3684757858670005e-15,15.15,11.21,13.0325,12.885,11.21,1.4821669103039643,-1.3133333333333332
1 -> 2,0.04226400000000002,0.04226399999999999,0.04226400000000001,0.04226400000000001,0.04226400000000002,1.1506853769672337e-17,6.938893903907228e-18,86.5,86.5,86.5,86.5,86.5,0.0,0.0,33.81000000000002,33.80999999999998,33.81,33.81,33.81000000000002,1.6280579355608324e-14,2.3684757858670005e-15,15.15,11.21,13.0325,12.885,11.21,1.4821669103039643,-1.3133333333333332
1 -> 2,0.04226400000000002,0.04226399999999999,0.04226400000000001,0.04226400000000001,0.04226400000000002,1.1506853769672337e-17,6.938893903907228e-18,86.5,86.5,86.5,86.5,86.5,0.0,0.0,33.81000000000002,33.80999999999998,33.81,33.81,33.81000000000002,1.6280579355608324e-14,2.3684757858670005e-15,10.95,10.62,10.7725,10.76,10.62,0.12735285626950035,0.0866666666666666
1 -> 2,0.04226400000000002,0.04226399999999999,0.04226400000000001,0.04226400000000001,0.04226400000000002,1.1506853769672337e-17,6.938893903907228e-18,86.5,86.5,86.5,86.5,86.5,0.0,0.0,33.81000000000002,33.80999999999998,33.81,33.81,33.81000000000002,1.6280579355608324e-14,2.3684757858670005e-15,10.95,10.62,10.7725,10.76,10.62,0.12735285626950035,0.0866666666666666
1 -> 2,0.04226400000000002,0.04226399999999999,0.04226400000000001,0.04226400000000001,0.04226400000000002,1.1506853769672337e-17,6.938893903907228e-18,86.5,86.5,86.5,86.5,86.5,0.0,0.0,33.81000000000002,33.80999999999998,33.81,33.81,33.81000000000002,1.6280579355608324e-14,2.3684757858670005e-15,10.64,5.85,8.525,8.805,5.85,1.8152203722964333,-1.596666666666667
1 -> 2,0.04226400000000002,0.04226399999999999,0.04226400000000001,0.04226400000000001,0.04226400000000002,1.1506853769672337e-17,6.938893903907228e-18,86.5,86.5,86.5,86.5,86.5,0.0,0.0,33.81000000000002,33.80999999999998,33.81,33.81,33.81000000000002,1.6280579355608324e-14,2.3684757858670005e-15,10.64,5.85,8.525,8.805,5.85,1.8152203722964333,-1.596666666666667
1 -> 2,0.04226400000000002,0.04226399999999999,0.04226400000000001,0.04226400000000001,0.04226400000000002,1.1506853769672337e-17,6.938893903907228e-18,86.5,86.5,86.5,86.5,86.5,0.0,0.0,33.81000000000002,33.80999999999998,33.81,33.81,33.81000000000002,1.6280579355608324e-14,2.3684757858670005e-15,3.6,-2.34,0.5700000000000001,0.51,-2.34,2.2100904958847276,-1.9800000000000002
1 -> 2,0.04226400000000002,0.04226399999999999,0.04226400000000001,0.04226400000000001,0.04226400000000002,1.1506853769672337e-17,6.938893903907228e-18,86.5,86.5,86.5,86.5,86.5,0.0,0.0,33.81000000000002,33.80999999999998,33.81,33.81,33.81000000000002,1.6280579355608324e-14,2.3684757858670005e-15,3.6,-2.34,0.5700000000000001,0.51,-2.34,2.2100904958847276,-1.9800000000000002
1 -> 2,0.04226400000000002,0.04226399999999999,0.04226400000000001,0.04226400000000001,0.04226400000000002,1.1506853769672337e-17,6.938893903907228e-18,86.5,86.5,86.5,86.5,86.5,0.0,0.0,33.81000000000002,33.80999999999998,33.81,33.81,33.81000000000002,1.6280579355608324e-14,2.3684757858670005e-15,-4.34,-11.38,-7.800000000000001,-7.74,-11.38,2.6280886590828705,-2.346666666666667
1 -> 2,0.04226400000000002,0.04226399999999999,0.04226400000000001,0.04226400000000001,0.04226400000000002,1.1506853769672337e-17,6.938893903907228e-18,86.5,86.5,86.5,86.5,86.5,0.0,0.0,33.81000000000002,33.80999999999998,33.81,33.81,33.81000000000002,1.6280579355608324e-14,2.3684757858670005e-15,-4.34,-11.38,-7.800000000000001,-7.74,-11.38,2.6280886590828705,-2.346666666666667
1 -> 2,0.04226400000000002,0.04226399999999999,0.04226400000000001,0.04226400000000001,0.04226400000000002,1.1506853769672337e-17,6.938893903907228e-18,86.5,86.5,86.5,86.5,86.5,0.0,0.0,33.81000000000002,33.80999999999998,33.81,33.81,33.81000000000002,1.6280579355608324e-14,2.3684757858670005e-15,-13.82,-21.33,-17.55,-17.525,-21.33,2.7996696233662997,-2.5033333333333325
1 -> 2,0.04226400000000002,0.04226399999999999,0.04226400000000001,0.04226400000000001,0.04226400000000002,1.1506853769672337e-17,6.938893903907228e-18,86.5,86.5,86.5,86.5,86.5,0.0,0.0,33.81000000000002,33.80999999999998,33.81,33.81,33.81000000000002,1.6280579355608324e-14,2.3684757858670005e-15,-13.82,-21.33,-17.55,-17.525,-21.33,2.7996696233662997,-2.5033333333333325
1 -> 2,0.04226400000000002,0.04226399999999999,0.04226400000000001,0.04226400000000001,0.04226400000000002,1.1506853769672337e-17,6.938893903907228e-18,86.5,86.5,86.5,86.5,86.5,0.0,0.0,33.81000000000002,33.80999999999998,33.81,33.81,33.81000000000002,1.6280579355608324e-14,2.3684757858670005e-15,-23.68,-25.89,-24.915,-25.045,-25.89,0.8267557075702593,-0.3433333333333337
1 -> 2,0.04226400000000002,0.04226399999999999,0.04226400000000001,0.04226400000000001,0.04226400000000002,1.1506853769672337e-17,6.938893903907228e-18,86.5,86.5,86.5,86.5,86.5,0.0,0.0,33.81000000000002,33.80999999999998,33.81,33.81,33.81000000000002,1.6280579355608324e-14,2.3684757858670005e-15,-23.68,-25.89,-24.915,-25.045,-25.89,0.8267557075702593,-0.3433333333333337
1 -> 2,0.04354400000000001,0.04354399999999999,0.043544000000000006,0.043544,0.04354399999999999,1.0971354589302191e-17,0.0,86.5,86.5,86.5,86.5,86.5,0.0,0.0,33.81000000000002,33.80999999999998,33.81,33.81,33.81000000000002,1.6280579355608324e-14,2.3684757858670005e-15,-3.44,-21.58,-12.999999999999998,-13.489999999999998,-21.58,6.8045830144102135,6.046666666666667
1 -> 2,0.04354400000000001,0.04354399999999999,0.043544000000000006,0.043544,0.04354399999999999,1.0971354589302191e-17,0.0,86.5,86.5,86.5,86.5,86.5,0.0,0.0,33.81000000000002,33.80999999999998,33.81,33.81,33.81000000000002,1.6280579355608324e-14,2.3684757858670005e-15,-3.44,-21.58,-12.999999999999998,-13.489999999999998,-21.58,6.8045830144102135,6.046666666666667
1 -> 2,0.04354400000000001,0.04354399999999999,0.043544000000000006,0.043544,0.04354399999999999,1.0971354589302191e-17,0.0,86.5,86.5,86.5,86.5,86.5,0.0,0.0,33.81000000000002,33.80999999999998,33.81,33.81,33.81000000000002,1.6280579355608324e-14,2.3684757858670005e-15,16.98,3.3,10.837499999999999,11.535,3.3,5.1535345880279095,4.5600000000000005
1 -> 2,0.04354400000000001,0.04354399999999999,0.043544000000000006,0.043544,0.04354399999999999,1.0971354589302191e-17,0.0,86.5,86.5,86.5,86.5,86.5,0.0,0.0,33.81000000000002,33.80999999999998,33.81,33.81,33.81000000000002,1.6280579355608324e-14,2.3684757858670005e-15,16.98,3.3,10.837499999999999,11.535,3.3,5.1535345880279095,4.5600000000000005
1 -> 2,0.04354400000000001,0.04354399999999999,0.043544000000000006,0.043544,0.04354399999999999,1.0971354589302191e-17,0.0,86.5,86.5,86.5,86.5,86.5,0.0,0.0,33.81000000000002,33.80999999999998,33.81,33.81,33.81000000000002,1.6280579355608324e-14,2.3684757858670005e-15,18.89,16.42,17.995,18.335,16.42,0.9570919496056786,-0.7299999999999992
1 -> 2,0.04354400000000001,0.04354399999999999,0.043544000000000006,0.043544,0.04354399999999999,1.0971354589302191e-17,0.0,86.5,86.5,86.5,86.5,86.5,0.0,0.0,33.81000000000002,33.80999999999998,33.81,33.81,33.81000000000002,1.6280579355608324e-14,2.3684757858670005e-15,18.89,16.42,17.995,18.335,16.42,0.9570919496056786,-0.7299999999999992
1 -> 2,0.04354400000000001,0.04354399999999999,0.043544000000000006,0.043544,0.04354399999999999,1.0971354589302191e-17,0.0,86.5,86.5,86.5,86.5,86.5,0.0,0.0,33.81000000000002,33.80999999999998,33.81,33.81,33.81000000000002,1.6280579355608324e-14,2.3684757858670005e-15,14.28,8.44,11.174999999999999,10.99,8.44,2.194908881935649,-1.9466666666666665
1 -> 2,0.04354400000000001,0.04354399999999999,0.043544000000000006,0.043544,0.04354399999999999,1.0971354589302191e-17,0.0,86.5,86.5,86.5,86.5,86.5,0.0,0.0,33.81000000000002,33.80999999999998,33.81,33.81,33.81000000000002,1.6280579355608324e-14,2.3684757858670005e-15,14.28,8.44,11.174999999999999,10.99,8.44,2.194908881935649,-1.9466666666666665
1 -> 2,0.04354400000000001,0.04354399999999999,0.043544000000000006,0.043544,0.04354399999999999,1.0971354589302191e-17,0.0,122.67,122.67,122.67,122.67,122.67,0.0,0.0,33.84000000000002,33.83999999999998,33.84,33.84000000000001,33.84000000000002,1.464821375527116e-14,7.105427357601002e-15,7.9,7.37,7.605,7.575,7.37,0.18980252896102318,0.10666666666666676
1 -> 2,0.04354400000000001,0.04354399999999999,0.043544000000000006,0.043544,0.04354399999999999,1.0971354589302191e-17,0.0,122.67,122.67,122.67,122.67,122.67,0.0,0.0,33.84000000000002,33.83999999999998,33.84,33.84000000000001,33.84000000000002,1.464821375527116e-14,7.105427357601002e-15,7.9,7.37,7.605,7.575,7.37,0.18980252896102318,0.10666666666666676
1 -> 2,0.04354400000000001,0.04354399999999999,0.043544000000000006,0.043544,0.04354399999999999,1.0971354589302191e-17,0.0,122.67,122.67,122.67,122.67,122.67,0.0,0.0,33.84000000000002,33.83999999999998,33.84,33.84000000000001,33.84000000000002,1.464821375527116e-14,7.105427357601002e-15,8.05,6.1,7.2875,7.5,6.1,0.758233967848975,-0.6500000000000004
1 -> 2,0.04354400000000001,0.04354399999999999,0.043544000000000006,0.043544,0.04354399999999999,1.0971354589302191e-17,0.0,122.67,122.67,122.67,122.67,122.67,0.0,0.0,33.84000000000002,33.83999999999998,33.84,33.84000000000001,33.84000000000002,1.464821375527116e-14,7.105427357601002e-15,8.05,6.1,7.2875,7.5,6.1,0.758233967848975,-0.6500000000000004
1 -> 2,0.04354400000000001,0.04354399999999999,0.043544000000000006,0.043544,0.04354399999999999,1.0971354589302191e-17,0.0,122.67,122.67,122.67,122.67,122.67,0.0,0.0,33.84000000000002,33.83999999999998,33.84,33.84000000000001,33.84000000000002,1.464821375527116e-14,7.105427357601002e-15,4.7,-0.69,2.0675000000000003,2.13,-0.69,2.0123291852974754,-1.7966666666666669
1 -> 2,0.04354400000000001,0.04354399999999999,0.043544000000000006,0.043544,0.04354399999999999,1.0971354589302191e-17,0.0,122.67,122.67,122.67,122.67,122.67,0.0,0.0,33.84000000000002,33.83999999999998,33.84,33.84000000000001,33.84000000000002,1.464821375527116e-14,7.105427357601002e-15,4.7,-0.69,2.0675000000000003,2.13,-0.69,2.0123291852974754,-1.7966666666666669
1 -> 2,0.04354400000000001,0.04354399999999999,0.043544000000000006,0.043544,0.04354399999999999,1.0971354589302191e-17,0.0,122.67,122.67,122.67,122.67,122.67,0.0,0.0,33.84000000000002,33.83999999999998,33.84,33.84000000000001,33.84000000000002,1.464821375527116e-14,7.105427357601002e-15,-2.65,-9.42,-5.9125,-5.79,-9.42,2.5197457709062636,-2.256666666666667
1 -> 2,0.04354400000000001,0.04354399999999999,0.043544000000000006,0.043544,0.04354399999999999,1.0971354589302191e-17,0.0,122.67,122.67,122.67,122.67,122.67,0.0,0.0,33.84000000000002,33.83999999999998,33.84,33.84000000000001,33.84000000000002,1.464821375527116e-14,7.105427357601002e-15,-2.65,-9.42,-5.9125,-5.79,-9.42,2.5197457709062636,-2.256666666666667
1 -> 2,0.04226400000000002,0.04226399999999999,0.04226400000000001,0.04226400000000001,0.04226400000000002,1.1506853769672337e-17,6.938893903907228e-18,122.67,122.67,122.67,122.67,122.67,0.0,0.0,33.84000000000002,33.83999999999998,33.84,33.84000000000001,33.84000000000002,1.464821375527116e-14,7.105427357601002e-15,-12.41,-22.85,-17.645000000000003,-17.66,-22.85,3.909044000775638,-3.4800000000000004
1 -> 2,0.04226400000000002,0.04226399999999999,0.04226400000000001,0.04226400000000001,0.04226400000000002,1.1506853769672337e-17,6.938893903907228e-18,122.67,122.67,122.67,122.67,122.67,0.0,0.0,33.84000000000002,33.83999999999998,33.84,33.84000000000001,33.84000000000002,1.464821375527116e-14,7.105427357601002e-15,-12.41,-22.85,-17.645000000000003,-17.66,-22.85,3.909044000775638,-3.4800000000000004
1 -> 2,0.04226400000000002,0.04226399999999999,0.04226400000000001,0.04226400000000001,0.04226400000000002,1.1506853769672337e-17,6.938893903907228e-18,122.67,122.67,122.67,122.67,122.67,0.0,0.0,33.84000000000002,33.83999999999998,33.84,33.84000000000001,33.84000000000002,1.464821375527116e-14,7.105427357601002e-15,-22.42,-26.34,-24.8775,-25.375,-26.34,1.4727249403741345,0.9733333333333327
1 -> 2,0.04226400000000002,0.04226399999999999,0.04226400000000001,0.04226400000000001,0.04226400000000002,1.1506853769672337e-17,6.938893903907228e-18,122.67,122.67,122.67,122.67,122.67,0.0,0.0,33.84000000000002,33.83999999999998,33.84,33.84000000000001,33.84000000000002,1.464821375527116e-14,7.105427357601002e-15,-22.42,-26.34,-24.8775,-25.375,-26.34,1.4727249403741345,0.9733333333333327
1 -> 2,0.04226400000000002,0.04226399999999999,0.04226400000000001,0.04226400000000001,0.04226400000000002,1.1506853769672337e-17,6.938893903907228e-18,122.67,122.67,122.67,122.67,122.67,0.0,0.0,33.84000000000002,33.83999999999998,33.84,33.84000000000001,33.84000000000002,1.464821375527116e-14,7.105427357601002e-15,2.06,-17.6,-7.910000000000001,-8.05,-17.6,7.356225254843682,6.553333333333335
1 -> 2,0.04226400000000002,0.04226399999999999,0.04226400000000001,0.04226400000000001,0.04226400000000002,1.1506853769672337e-17,6.938893903907228e-18,122.67,122.67,122.67,122.67,122.67,0.0,0.0,33.84000000000002,33.83999999999998,33.84,33.84000000000001,33.84000000000002,1.464821375527116e-14,7.105427357601002e-15,2.06,-17.6,-7.910000000000001,-8.05,-17.6,7.356225254843682,6.553333333333335
1 -> 2,0.04226400000000002,0.04226399999999999,0.04226400000000001,0.04226400000000001,0.04226400000000002,1.1506853769672337e-17,6.938893903907228e-18,122.67,122.67,122.67,122.67,122.67,0.0,0.0,33.84000000000002,33.83999999999998,33.84,33.84000000000001,33.84000000000002,1.464821375527116e-14,7.105427357601002e-15,18.55,8.1,14.0425,14.76,8.1,3.9640785499280917,3.483333333333334
1 -> 2,0.04226400000000002,0.04226399999999999,0.04226400000000001,0.04226400000000001,0.04226400000000002,1.1506853769672337e-17,6.938893903907228e-18,122.67,122.67,122.67,122.67,122.67,0.0,0.0,33.84000000000002,33.83999999999998,33.84,33.84000000000001,33.84000000000002,1.464821375527116e-14,7.105427357601002e-15,18.55,8.1,14.0425,14.76,8.1,3.9640785499280917,3.483333333333334
1 -> 2,0.04098300000000001,0.04098299999999999,0.040983000000000006,0.040983000000000006,0.04098300000000001,9.179293821800323e-18,2.3129646346357427e-18,122.67,122.67,122.67,122.67,122.67,0.0,0.0,33.84000000000002,33.83999999999998,33.84,33.84000000000001,33.84000000000002,1.464821375527116e-14,7.105427357601002e-15,19.07,13.34,16.68,17.155,13.34,2.203417799692106,-1.9100000000000001
1 -> 2,0.04098300000000001,0.04098299999999999,0.040983000000000006,0.040983000000000006,0.04098300000000001,9.179293821800323e-18,2.3129646346357427e-18,122.67,122.67,122.67,122.67,122.67,0.0,0.0,33.84000000000002,33.83999999999998,33.84,33.84000000000001,33.84000000000002,1.464821375527116e-14,7.105427357601002e-15,19.07,13.34,16.68,17.155,13.34,2.203417799692106,-1.9100000000000001
1 -> 2,0.04098300000000001,0.04098299999999999,0.040983000000000006,0.040983000000000006,0.04098300000000001,9.179293821800323e-18,2.3129646346357427e-18,122.67,122.67,122.67,122.67,122.67,0.0,0.0,33.84000000000002,33.83999999999998,33.84,33.84000000000001,33.84000000000002,1.464821375527116e-14,7.105427357601002e-15,10.34,4.8,7.155,6.74,4.8,2.1118534513549942,-1.8466666666666667
1 -> 2,0.04098300000000001,0.04098299999999999,0.040983000000000006,0.040983000000000006,0.04098300000000001,9.179293821800323e-18,2.3129646346357427e-18,122.67,122.67,122.67,122.67,122.67,0.0,0.0,33.84000000000002,33.83999999999998,33.84,33.84000000000001,33.84000000000002,1.464821375527116e-14,7.105427357601002e-15,10.34,4.8,7.155,6.74,4.8,2.1118534513549942,-1.8466666666666667
1 -> 2,0.04098300000000001,0.04098299999999999,0.040983000000000006,0.040983000000000006,0.04098300000000001,9.179293821800323e-18,2.3129646346357427e-18,122.67,122.67,122.67,122.67,122.67,0.0,0.0,33.84000000000002,33.83999999999998,33.84,33.84000000000001,33.84000000000002,1.464821375527116e-14,7.105427357601002e-15,5.01,4.58,4.824999999999999,4.855,4.58,0.16378339354159185,0.11666666666666654
1 -> 2,0.04098300000000001,0.04098299999999999,0.040983000000000006,0.040983000000000006,0.04098300000000001,9.179293821800323e-18,2.3129646346357427e-18,122.67,122.67,122.67,122.67,122.67,0.0,0.0,33.84000000000002,33.83999999999998,33.84,33.84000000000001,33.84000000000002,1.464821375527116e-14,7.105427357601002e-15,5.01,4.58,4.824999999999999,4.855,4.58,0.16378339354159185,0.11666666666666654
1 -> 2,0.04098300000000001,0.04098299999999999,0.040983000000000006,0.040983000000000006,0.04098300000000001,9.179293821800323e-18,2.3129646346357427e-18,122.67,122.67,122.67,122.67,122.67,0.0,0.0,33.84000000000002,33.83999999999998,33.84,33.84000000000001,33.84000000000002,1.464821375527116e-14,7.105427357601002e-15,4.42,0.74,2.7175000000000002,2.8550000000000004,0.74,1.383227656606099,-1.2266666666666666
1 -> 2,0.04098300000000001,0.04098299999999999,0.040983000000000006,0.040983000000000006,0.04098300000000001,9.179293821800323e-18,2.3129646346357427e-18,122.67,122.67,122.67,122.67,122.67,0.0,0.0,33.84000000000002,33.83999999999998,33.84,33.84000000000001,33.84000000000002,1.464821375527116e-14,7.105427357601002e-15,4.42,0.74,2.7175000000000002,2.8550000000000004,0.74,1.383227656606099,-1.2266666666666666
1 -> 2,0.04354400000000001,0.04354399999999999,0.043544000000000006,0.043544,0.04354399999999999,1.0971354589302191e-17,0.0,122.67,122.67,122.67,122.67,122.67,0.0,0.0,33.84000000000002,33.83999999999998,33.84,33.84000000000001,33.84000000000002,1.464821375527116e-14,7.105427357601002e-15,-0.92,-7.34,-3.98,-3.83,-7.34,2.3950678487257933,-2.14
1 -> 2,0.04354400000000001,0.04354399999999999,0.043544000000000006,0.043544,0.04354399999999999,1.0971354589302191e-17,0.0,122.67,122.67,122.67,122.67,122.67,0.0,0.0,33.84000000000002,33.83999999999998,33.84,33.84000000000001,33.84000000000002,1.464821375527116e-14,7.105427357601002e-15,-0.92,-7.34,-3.98,-3.83,-7.34,2.3950678487257933,-2.14
1 -> 2,0.04354400000000001,0.04354399999999999,0.043544000000000006,0.043544,0.04354399999999999,1.0971354589302191e-17,0.0,122.67,122.67,122.67,122.67,122.67,0.0,0.0,33.84000000000002,33.83999999999998,33.84,33.84000000000001,33.84000000000002,1.464821375527116e-14,7.105427357601002e-15,-10.19,-20.76,-15.36,-15.245,-20.76,3.948398409482002,-3.523333333333334
1 -> 2,0.04354400000000001,0.04354399999999999,0.043544000000000006,0.043544,0.04354399999999999,1.0971354589302191e-17,0.0,122.67,122.67,122.67,122.67,122.67,0.0,0.0,33.84000000000002,33.83999999999998,33.84,33.84000000000001,33.84000000000002,1.464821375527116e-14,7.105427357601002e-15,-10.19,-20.76,-15.36,-15.245,-20.76,3.948398409482002,-3.523333333333334
1 -> 2,0.04354400000000001,0.04354399999999999,0.043544000000000006,0.043544,0.04354399999999999,1.0971354589302191e-17,0.0,122.67,122.67,122.67,122.67,122.67,0.0,0.0,33.84000000000002,33.83999999999998,33.84,33.84000000000001,33.84000000000002,1.464821375527116e-14,7.105427357601002e-15,-24.3,-29.47,-27.5325,-28.18,-29.47,2.0476373580299803,-1.7233333333333327
1 -> 2,0.04354400000000001,0.04354399999999999,0.043544000000000006,0.043544,0.04354399999999999,1.0971354589302191e-17,0.0,122.67,122.67,122.67,122.67,122.67,0.0,0.0,33.84000000000002,33.83999999999998,33.84,33.84000000000001,33.84000000000002,1.464821375527116e-14,7.105427357601002e-15,-24.3,-29.47,-27.5325,-28.18,-29.47,2.0476373580299803,-1.7233333333333327
1 -> 2,0.04354400000000001,0.04354399999999999,0.043544000000000006,0.043544,0.04354399999999999,1.0971354589302191e-17,0.0,122.67,122.67,122.67,122.67,122.67,0.0,0.0,33.84000000000002,33.83999999999998,33.84,33.84000000000001,33.84000000000002,1.464821375527116e-14,7.105427357601002e-15,-13.49,-28.03,-21.5,-22.240000000000002,-28.03,5.483985776786808,4.846666666666667
1 -> 2,0.04354400000000001,0.04354399999999999,0.043544000000000006,0.043544,0.04354399999999999,1.0971354589302191e-17,0.0,122.67,122.67,122.67,122.67,122.67,0.0,0.0,33.84000000000002,33.83999999999998,33.84,33.84000000000001,33.84000000000002,1.464821375527116e-14,7.105427357601002e-15,-13.49,-28.03,-21.5,-22.240000000000002,-28.03,5.483985776786808,4.846666666666667
1 -> 2,0.04226400000000002,0.04226399999999999,0.04226400000000001,0.04226400000000001,0.04226400000000002,1.1506853769672337e-17,6.938893903907228e-18,107.0,107.0,107.0,107.0,107.0,0.0,0.0,33.81000000000002,33.80999999999998,33.81,33.81,33.81000000000002,1.6280579355608324e-14,2.3684757858670005e-15,12.62,-6.52,3.4299999999999997,3.81,-6.52,7.161235926849499,6.38
1 -> 2,0.04226400000000002,0.04226399999999999,0.04226400000000001,0.04226400000000001,0.04226400000000002,1.1506853769672337e-17,6.938893903907228e-18,107.0,107.0,107.0,107.0,107.0,0.0,0.0,33.81000000000002,33.80999999999998,33.81,33.81,33.81000000000002,1.6280579355608324e-14,2.3684757858670005e-15,12.62,-6.52,3.4299999999999997,3.81,-6.52,7.161235926849499,6.38
1 -> 2,0.04226400000000002,0.04226399999999999,0.04226400000000001,0.04226400000000001,0.04226400000000002,1.1506853769672337e-17,6.938893903907228e-18,107.0,107.0,107.0,107.0,107.0,0.0,0.0,33.81000000000002,33.80999999999998,33.81,33.81,33.81000000000002,1.6280579355608324e-14,2.3684757858670005e-15,21.29,16.86,19.72,20.365,16.86,1.7676962408739796,1.4766666666666666
1 -> 2,0.04226400000000002,0.04226399999999999,0.04226400000000001,0.04226400000000001,0.04226400000000002,1.1506853769672337e-17,6.938893903907228e-18,107.0,107.0,107.0,107.0,107.0,0.0,0.0,33.81000000000002,33.80999999999998,33.81,33.81,33.81000000000002,1.6280579355608324e-14,2.3684757858670005e-15,21.29,16.86,19.72,20.365,16.86,1.7676962408739796,1.4766666666666666
1 -> 2,0.04226400000000002,0.04226399999999999,0.04226400000000001,0.04226400000000001,0.04226400000000002,1.1506853769672337e-17,6.938893903907228e-18,107.0,107.0,107.0,107.0,107.0,0.0,0.0,33.81000000000002,33.80999999999998,33.81,33.81,33.81000000000002,1.6280579355608324e-14,2.3684757858670005e-15,20.52,14.95,17.8925,18.05,14.95,2.09358991925353,-1.8566666666666667
1 -> 2,0.04226400000000002,0.04226399999999999,0.04226400000000001,0.04226400000000001,0.04226400000000002,1.1506853769672337e-17,6.938893903907228e-18,107.0,107.0,107.0,107.0,107.0,0.0,0.0,33.81000000000002,33.80999999999998,33.81,33.81,33.81000000000002,1.6280579355608324e-14,2.3684757858670005e-15,20.52,14.95,17.8925,18.05,14.95,2.09358991925353,-1.8566666666666667
1 -> 2,0.04226400000000002,0.04226399999999999,0.04226400000000001,0.04226400000000001,0.04226400000000002,1.1506853769672337e-17,6.938893903907228e-18,107.0,107.0,107.0,107.0,107.0,0.0,0.0,33.81000000000002,33.80999999999998,33.81,33.81,33.81000000000002,1.6280579355608324e-14,2.3684757858670005e-15,12.96,9.58,11.035,10.8,9.58,1.2784854320640502,-1.126666666666667
1 -> 2,0.04226400000000002,0.04226399999999999,0.04226400000000001,0.04226400000000001,0.04226400000000002,1.1506853769672337e-17,6.938893903907228e-18,107.0,107.0,107.0,107.0,107.0,0.0,0.0,33.81000000000002,33.80999999999998,33.81,33.81,33.81000000000002,1.6280579355608324e-14,2.3684757858670005e-15,12.96,9.58,11.035,10.8,9.58,1.2784854320640502,-1.126666666666667
1 -> 2,0.04226400000000002,0.04226399999999999,0.04226400000000001,0.04226400000000001,0.04226400000000002,1.1506853769672337e-17,6.938893903907228e-18,107.0,107.0,107.0,107.0,107.0,0.0,0.0,33.81000000000002,33.80999999999998,33.81,33.81,33.81000000000002,1.6280579355608324e-14,2.3684757858670005e-15,9.08,5.8,7.675,7.91,5.8,1.2411587327977032,-1.0933333333333335
1 -> 2,0.04226400000000002,0.04226399999999999,0.04226400000000001,0.04226400000000001,0.04226400000000002,1.1506853769672337e-17,6.938893903907228e-18,107.0,107.0,107.0,107.0,107.0,0.0,0.0,33.81000000000002,33.80999999999998,33.81,33.81,33.81000000000002,1.6280579355608324e-14,2.3684757858670005e-15,9.08,5.8,7.675,7.91,5.8,1.2411587327977032,-1.0933333333333335
1 -> 2,0.04226400000000002,0.04226399999999999,0.04226400000000001,0.04226400000000001,0.04226400000000002,1.1506853769672337e-17,6.938893903907228e-18,107.0,107.0,107.0,107.0,107.0,0.0,0.0,33.81000000000002,33.80999999999998,33.81,33.81,33.81000000000002,1.6280579355608324e-14,2.3684757858670005e-15,3.74,-3.55,0.11250000000000004,0.13,-3.55,2.7225206610786263,-2.43
1 -> 2,0.04226400000000002,0.04226399999999999,0.04226400000000001,0.04226400000000001,0.04226400000000002,1.1506853769672337e-17,6.938893903907228e-18,107.0,107.0,107.0,107.0,107.0,0.0,0.0,33.81000000000002,33.80999999999998,33.81,33.81,33.81000000000002,1.6280579355608324e-14,2.3684757858670005e-15,3.74,-3.55,0.11250000000000004,0.13,-3.55,2.7225206610786263,-2.43
1 -> 2,0.04226400000000002,0.04226399999999999,0.04226400000000001,0.04226400000000001,0.04226400000000002,1.1506853769672337e-17,6.938893903907228e-18,107.0,107.0,107.0,107.0,107.0,0.0,0.0,33.81000000000002,33.80999999999998,33.81,33.81,33.81000000000002,1.6280579355608324e-14,2.3684757858670005e-15,-5.91,-13.99,-9.7775,-9.605,-13.99,3.0070032840021974,-2.6933333333333334
1 -> 2,0.04226400000000002,0.04226399999999999,0.04226400000000001,0.04226400000000001,0.04226400000000002,1.1506853769672337e-17,6.938893903907228e-18,107.0,107.0,107.0,107.0,107.0,0.0,0.0,33.81000000000002,33.80999999999998,33.81,33.81,33.81000000000002,1.6280579355608324e-14,2.3684757858670005e-15,-5.91,-13.99,-9.7775,-9.605,-13.99,3.0070032840021974,-2.6933333333333334
1 -> 2,0.04226400000000002,0.04226399999999999,0.04226400000000001,0.04226400000000001,0.04226400000000002,1.1506853769672337e-17,6.938893903907228e-18,107.0,107.0,107.0,107.0,107.0,0.0,0.0,33.81000000000002,33.80999999999998,33.81,33.81,33.81000000000002,1.6280579355608324e-14,2.3684757858670005e-15,-17.72,-31.08,-24.4025,-24.405,-31.08,5.003730483349398,-4.453333333333333
1 -> 2,0.04226400000000002,0.04226399999999999,0.04226400000000001,0.04226400000000001,0.04226400000000002,1.1506853769672337e-17,6.938893903907228e-18,107.0,107.0,107.0,107.0,107.0,0.0,0.0,33.81000000000002,33.80999999999998,33.81,33.81,33.81000000000002,1.6280579355608324e-14,2.3684757858670005e-15,-17.72,-31.08,-24.4025,-24.405,-31.08,5.003730483349398,-4.453333333333333
1 -> 2,0.04226400000000002,0.04226399999999999,0.04226400000000001,0.04226400000000001,0.04226400000000002,1.1506853769672337e-17,6.938893903907228e-18,107.0,107.0,107.0,107.0,107.0,0.0,0.0,33.81000000000002,33.80999999999998,33.81,33.81,33.81000000000002,1.6280579355608324e-14,2.3684757858670005e-15,-31.49,-35.68,-34.057500000000005,-34.53,-35.68,1.5626799896331949,0.9400000000000013
1 -> 2,0.04226400000000002,0.04226399999999999,0.04226400000000001,0.04226400000000001,0.04226400000000002,1.1506853769672337e-17,6.938893903907228e-18,107.0,107.0,107.0,107.0,107.0,0.0,0.0,33.81000000000002,33.80999999999998,33.81,33.81,33.81000000000002,1.6280579355608324e-14,2.3684757858670005e-15,-31.49,-35.68,-34.057500000000005,-34.53,-35.68,1.5626799896331949,0.9400000000000013
1 -> 2,0.04226400000000002,0.04226399999999999,0.04226400000000001,0.04226400000000001,0.04226400000000002,1.1506853769672337e-17,6.938893903907228e-18,107.0,107.0,107.0,107.0,107.0,0.0,0.0,33.81000000000002,33.80999999999998,33.81,33.81,33.81000000000002,1.6280579355608324e-14,2.3684757858670005e-15,-5.5,-26.28,-16.0325,-16.174999999999997,-26.28,7.768588594461674,6.926666666666667
1 -> 2,0.04226400000000002,0.04226399999999999,0.04226400000000001,0.04226400000000001,0.04226400000000002,1.1506853769672337e-17,6.938893903907228e-18,107.0,107.0,107.0,107.0,107.0,0.0,0.0,33.81000000000002,33.80999999999998,33.81,33.81,33.81000000000002,1.6280579355608324e-14,2.3684757858670005e-15,-5.5,-26.28,-16.0325,-16.174999999999997,-26.28,7.768588594461674,6.926666666666667
1 -> 2,0.04226400000000002,0.04226399999999999,0.04226400000000001,0.04226400000000001,0.04226400000000002,1.1506853769672337e-17,6.938893903907228e-18,107.0,107.0,107.0,107.0,107.0,0.0,0.0,33.81000000000002,33.80999999999998,33.81,33.81,33.81000000000002,1.6280579355608324e-14,2.3684757858670005e-15,14.87,1.08,8.5425,9.11,1.08,5.1753037350478275,4.596666666666667
1 -> 2,0.04226400000000002,0.04226399999999999,0.04226400000000001,0.04226400000000001,0.04226400000000002,1.1506853769672337e-17,6.938893903907228e-18,107.0,107.0,107.0,107.0,107.0,0.0,0.0,33.81000000000002,33.80999999999998,33.81,33.81,33.81000000000002,1.6280579355608324e-14,2.3684757858670005e-15,14.87,1.08,8.5425,9.11,1.08,5.1753037350478275,4.596666666666667
1 -> 2,0.04226400000000002,0.04226399999999999,0.04226400000000001,0.04226400000000001,0.04226400000000002,1.1506853769672337e-17,6.938893903907228e-18,107.0,107.0,107.0,107.0,107.0,0.0,0.0,33.81000000000002,33.80999999999998,33.81,33.81,33.81000000000002,1.6280579355608324e-14,2.3684757858670005e-15,18.37,17.08,17.9,18.075,17.08,0.4941153711432188,0.29666666666666686
1 -> 2,0.04226400000000002,0.04226399999999999,0.04226400000000001,0.04226400000000001,0.04226400000000002,1.1506853769672337e-17,6.938893903907228e-18,107.0,107.0,107.0,107.0,107.0,0.0,0.0,33.81000000000002,33.80999999999998,33.81,33.81,33.81000000000002,1.6280579355608324e-14,2.3684757858670005e-15,18.37,17.08,17.9,18.075,17.08,0.4941153711432188,0.29666666666666686
1 -> 2,0.04354400000000001,0.04354399999999999,0.043544000000000006,0.043544,0.04354399999999999,1.0971354589302191e-17,0.0,107.0,107.0,107.0,107.0,107.0,0.0,0.0,33.81000000000002,33.80999999999998,33.81,33.81,33.81000000000002,1.6280579355608324e-14,2.3684757858670005e-15,17.31,15.95,16.54,16.45,15.95,0.51550945675128,-0.45333333333333314
1 -> 2,0.04354400000000001,0.04354399999999999,0.043544000000000006,0.043544,0.04354399999999999,1.0971354589302191e-17,0.0,107.0,107.0,107.0,107.0,107.0,0.0,0.0,33.81000000000002,33.80999999999998,33.81,33.81,33.81000000000002,1.6280579355608324e-14,2.3684757858670005e-15,17.31,15.95,16.54,16.45,15.95,0.51550945675128,-0.45333333333333314
1 -> 2,0.04354400000000001,0.04354399999999999,0.043544000000000006,0.043544,0.04354399999999999,1.0971354589302191e-17,0.0,107.0,107.0,107.0,107.0,107.0,0.0,0.0,33.81000000000002,33.80999999999998,33.81,33.81,33.81000000000002,1.6280579355608324e-14,2.3684757858670005e-15,15.75,13.89,14.985,15.149999999999999,13.89,0.7083254901526554,-0.6199999999999998
1 -> 2,0.04354400000000001,0.04354399999999999,0.043544000000000006,0.043544,0.04354399999999999,1.0971354589302191e-17,0.0,107.0,107.0,107.0,107.0,107.0,0.0,0.0,33.81000000000002,33.80999999999998,33.81,33.81,33.81000000000002,1.6280579355608324e-14,2.3684757858670005e-15,15.75,13.89,14.985,15.149999999999999,13.89,0.7083254901526554,-0.6199999999999998
1 -> 2,0.04354400000000001,0.04354399999999999,0.043544000000000006,0.043544,0.04354399999999999,1.0971354589302191e-17,0.0,107.0,107.0,107.0,107.0,107.0,0.0,0.0,33.81000000000002,33.80999999999998,33.81,33.81,33.81000000000002,1.6280579355608324e-14,2.3684757858670005e-15,12.53,6.97,9.83,9.91,6.97,2.076631888419322,-1.8533333333333333
1 -> 2,0.04354400000000001,0.04354399999999999,0.043544000000000006,0.043544,0.04354399999999999,1.0971354589302191e-17,0.0,107.0,107.0,107.0,107.0,107.0,0.0,0.0,33.81000000000002,33.80999999999998,33.81,33.81,33.81000000000002,1.6280579355608324e-14,2.3684757858670005e-15,12.53,6.97,9.83,9.91,6.97,2.076631888419322,-1.8533333333333333
1 -> 2,0.04354400000000001,0.04354399999999999,0.043544000000000006,0.043544,0.04354399999999999,1.0971354589302191e-17,0.0,107.0,107.0,107.0,107.0,107.0,0.0,0.0,33.81000000000002,33.80999999999998,33.81,33.81,33.81000000000002,1.6280579355608324e-14,2.3684757858670005e-15,4.85,-2.85,1.1400000000000001,1.28,-2.85,2.8722900271386242,-2.5666666666666664
1 -> 2,0.04354400000000001,0.04354399999999999,0.043544000000000006,0.043544,0.04354399999999999,1.0971354589302191e-17,0.0,107.0,107.0,107.0,107.0,107.0,0.0,0.0,33.81000000000002,33.80999999999998,33.81,33.81,33.81000000000002,1.6280579355608324e-14,2.3684757858670005e-15,4.85,-2.85,1.1400000000000001,1.28,-2.85,2.8722900271386242,-2.5666666666666664
1 -> 2,0.04354400000000001,0.04354399999999999,0.043544000000000006,0.043544,0.04354399999999999,1.0971354589302191e-17,0.0,107.4,107.4,107.4,107.4,107.4,0.0,0.0,33.81000000000002,33.80999999999998,33.81,33.81,33.81000000000002,1.6280579355608324e-14,2.3684757858670005e-15,-5.95,-16.05,-10.945,-10.89,-16.05,3.7637049565554417,-3.366666666666667
1 -> 2,0.04354400000000001,0.04354399999999999,0.043544000000000006,0.043544,0.04354399999999999,1.0971354589302191e-17,0.0,107.4,107.4,107.4,107.4,107.4,0.0,0.0,33.81000000000002,33.80999999999998,33.81,33.81,33.81000000000002,1.6280579355608324e-14,2.3684757858670005e-15,-5.95,-16.05,-10.945,-10.89,-16.05,3.7637049565554417,-3.366666666666667
1 -> 2,0.04354400000000001,0.04354399999999999,0.043544000000000006,0.043544,0.04354399999999999,1.0971354589302191e-17,0.0,107.4,107.4,107.4,107.4,107.4,0.0,0.0,33.81000000000002,33.80999999999998,33.81,33.81,33.81000000000002,1.6280579355608324e-14,2.3684757858670005e-15,-19.75,-31.28,-25.5975,-25.68,-31.28,4.315601783065718,-3.8433333333333337
1 -> 2,0.04354400000000001,0.04354399999999999,0.043544000000000006,0.043544,0.04354399999999999,1.0971354589302191e-17,0.0,107.4,107.4,107.4,107.4,107.4,0.0,0.0,33.81000000000002,33.80999999999998,33.81,33.81,33.81000000000002,1.6280579355608324e-14,2.3684757858670005e-15,-19.75,-31.28,-25.5975,-25.68,-31.28,4.315601783065718,-3.8433333333333337
1 -> 2,0.04354400000000001,0.04354399999999999,0.043544000000000006,0.043544,0.04354399999999999,1.0971354589302191e-17,0.0,107.4,107.4,107.4,107.4,107.4,0.0,0.0,33.81000000000002,33.80999999999998,33.81,33.81,33.81000000000002,1.6280579355608324e-14,2.3684757858670005e-15,-30.04,-34.7,-33.005,-33.64,-34.7,1.7713483564787602,1.2666666666666682
1 -> 2,0.04354400000000001,0.04354399999999999,0.043544000000000006,0.043544,0.04354399999999999,1.0971354589302191e-17,0.0,107.4,107.4,107.4,107.4,107.4,0.0,0.0,33.81000000000002,33.80999999999998,33.81,33.81,33.81000000000002,1.6280579355608324e-14,2.3684757858670005e-15,-30.04,-34.7,-33.005,-33.64,-34.7,1.7713483564787602,1.2666666666666682
1 -> 2,0.04354400000000001,0.04354399999999999,0.043544000000000006,0.043544,0.04354399999999999,1.0971354589302191e-17,0.0,107.4,107.4,107.4,107.4,107.4,0.0,0.0,33.81000000000002,33.80999999999998,33.81,33.81,33.81000000000002,1.6280579355608324e-14,2.3684757858670005e-15,-5.73,-24.88,-15.317499999999999,-15.329999999999998,-24.88,7.161387348133041,6.383333333333333
1 -> 2,0.04354400000000001,0.04354399999999999,0.043544000000000006,0.043544,0.04354399999999999,1.0971354589302191e-17,0.0,107.4,107.4,107.4,107.4,107.4,0.0,0.0,33.81000000000002,33.80999999999998,33.81,33.81,33.81000000000002,1.6280579355608324e-14,2.3684757858670005e-15,-5.73,-24.88,-15.317499999999999,-15.329999999999998,-24.88,7.161387348133041,6.383333333333333
1 -> 2,0.04226400000000002,0.04226399999999999,0.04226400000000001,0.04226400000000001,0.04226400000000002,1.1506853769672337e-17,6.938893903907228e-18,107.4,107.4,107.4,107.4,107.4,0.0,0.0,33.81000000000002,33.80999999999998,33.81,33.81,33.81000000000002,1.6280579355608324e-14,2.3684757858670005e-15,9.29,-0.22,5.154999999999999,5.775,-0.22,3.597989021661961,3.1699999999999995
1 -> 2,0.04226400000000002,0.04226399999999999,0.04226400000000001,0.04226400000000001,0.04226400000000002,1.1506853769672337e-17,6.938893903907228e-18,107.4,107.4,107.4,107.4,107.4,0.0,0.0,33.81000000000002,33.80999999999998,33.81,33.81,33.81000000000002,1.6280579355608324e-14,2.3684757858670005e-15,9.29,-0.22,5.154999999999999,5.775,-0.22,3.597989021661961,3.1699999999999995
1 -> 2,0.04226400000000002,0.04226399999999999,0.04226400000000001,0.04226400000000001,0.04226400000000002,1.1506853769672337e-17,6.938893903907228e-18,107.4,107.4,107.4,107.4,107.4,0.0,0.0,33.81000000000002,33.80999999999998,33.81,33.81,33.81000000000002,1.6280579355608324e-14,2.3684757858670005e-15,10.09,7.98,9.3025,9.57,7.98,0.8391178403537848,-0.7033333333333331
1 -> 2,0.04226400000000002,0.04226399999999999,0.04226400000000001,0.04226400000000001,0.04226400000000002,1.1506853769672337e-17,6.938893903907228e-18,107.4,107.4,107.4,107.4,107.4,0.0,0.0,33.81000000000002,33.80999999999998,33.81,33.81,33.81000000000002,1.6280579355608324e-14,2.3684757858670005e-15,10.09,7.98,9.3025,9.57,7.98,0.8391178403537848,-0.7033333333333331
1 -> 2,0.04226400000000002,0.04226399999999999,0.04226400000000001,0.04226400000000001,0.04226400000000002,1.1506853769672337e-17,6.938893903907228e-18,107.4,107.4,107.4,107.4,107.4,0.0,0.0,33.81000000000002,33.80999999999998,33.81,33.81,33.81000000000002,1.6280579355608324e-14,2.3684757858670005e-15,6.55,1.67,4.137499999999999,4.165,1.67,1.8215017842428813,-1.6266666666666667
1 -> 2,0.04226400000000002,0.04226399999999999,0.04226400000000001,0.04226400000000001,0.04226400000000002,1.1506853769672337e-17,6.938893903907228e-18,107.4,107.4,107.4,107.4,107.4,0.0,0.0,33.81000000000002,33.80999999999998,33.81,33.81,33.81000000000002,1.6280579355608324e-14,2.3684757858670005e-15,6.55,1.67,4.137499999999999,4.165,1.67,1.8215017842428813,-1.6266666666666667
1 -> 2,0.04226400000000002,0.04226399999999999,0.04226400000000001,0.04226400000000001,0.04226400000000002,1.1506853769672337e-17,6.938893903907228e-18,107.4,107.4,107.4,107.4,107.4,0.0,0.0,33.81000000000002,33.80999999999998,33.81,33.81,33.81000000000002,1.6280579355608324e-14,2.3684757858670005e-15,0.05,-3.6,-1.9024999999999999,-2.0300000000000002,-3.6,1.3666084845338844,-1.2166666666666668
1 -> 2,0.04226400000000002,0.04226399999999999,0.04226400000000001,0.04226400000000001,0.04226400000000002,1.1506853769672337e-17,6.938893903907228e-18,107.4,107.4,107.4,107.4,107.4,0.0,0.0,33.81000000000002,33.80999999999998,33.81,33.81,33.81000000000002,1.6280579355608324e-14,2.3684757858670005e-15,0.05,-3.6,-1.9024999999999999,-2.0300000000000002,-3.6,1.3666084845338844,-1.2166666666666668
1 -> 2,0.04226400000000002,0.04226399999999999,0.04226400000000001,0.04226400000000001,0.04226400000000002,1.1506853769672337e-17,6.938893903907228e-18,107.4,107.4,107.4,107.4,107.4,0.0,0.0,33.81000000000002,33.80999999999998,33.81,33.81,33.81000000000002,1.6280579355608324e-14,2.3684757858670005e-15,-4.35,-6.0,-5.2125,-5.25,-6.0,0.6149542665922402,-0.5500000000000002
1 -> 2,0.04226400000000002,0.04226399999999999,0.04226400000000001,0.04226400000000001,0.04226400000000002,1.1506853769672337e-17,6.938893903907228e-18,107.4,107.4,107.4,107.4,107.4,0.0,0.0,33.81000000000002,33.80999999999998,33.81,33.81,33.81000000000002,1.6280579355608324e-14,2.3684757858670005e-15,-4.35,-6.0,-5.2125,-5.25,-6.0,0.6149542665922402,-0.5500000000000002
1 -> 2,0.04226400000000002,0.04226399999999999,0.04226400000000001,0.04226400000000001,0.04226400000000002,1.1506853769672337e-17,6.938893903907228e-18,107.4,107.4,107.4,107.4,107.4,0.0,0.0,33.81000000000002,33.80999999999998,33.81,33.81,33.81000000000002,1.6280579355608324e-14,2.3684757858670005e-15,-6.43,-8.35,-7.2875,-7.1850000000000005,-8.35,0.7195962409573857,-0.64
1 -> 2,0.04226400000000002,0.04226399999999999,0.04226400000000001,0.04226400000000001,0.04226400000000002,1.1506853769672337e-17,6.938893903907228e-18,107.4,107.4,107.4,107.4,107.4,0.0,0.0,33.81000000000002,33.80999999999998,33.81,33.81,33.81000000000002,1.6280579355608324e-14,2.3684757858670005e-15,-6.43,-8.35,-7.2875,-7.1850000000000005,-8.35,0.7195962409573857,-0.64
1 -> 2,0.04226400000000002,0.04226399999999999,0.04226400000000001,0.04226400000000001,0.04226400000000002,1.1506853769672337e-17,6.938893903907228e-18,107.4,107.4,107.4,107.4,107.4,0.0,0.0,33.81000000000002,33.80999999999998,33.81,33.81,33.81000000000002,1.6280579355608324e-14,2.3684757858670005e-15,-9.46,-11.93,-10.879999999999999,-11.065,-11.93,0.9488677463166293,-0.8233333333333329
1 -> 2,0.04226400000000002,0.04226399999999999,0.04226400000000001,0.04226400000000001,0.04226400000000002,1.1506853769672337e-17,6.938893903907228e-18,107.4,107.4,107.4,107.4,107.4,0.0,0.0,33.81000000000002,33.80999999999998,33.81,33.81,33.81000000000002,1.6280579355608324e-14,2.3684757858670005e-15,-9.46,-11.93,-10.879999999999999,-11.065,-11.93,0.9488677463166293,-0.8233333333333329
1 -> 2,0.04226400000000002,0.04226399999999999,0.04226400000000001,0.04226400000000001,0.04226400000000002,1.1506853769672337e-17,6.938893903907228e-18,107.4,107.4,107.4,107.4,107.4,0.0,0.0,33.81000000000002,33.80999999999998,33.81,33.81,33.81000000000002,1.6280579355608324e-14,2.3684757858670005e-15,-11.56,-12.16,-11.79,-11.719999999999999,-12.16,0.24433583445741222,-0.10000000000000024
1 -> 2,0.04226400000000002,0.04226399999999999,0.04226400000000001,0.04226400000000001,0.04226400000000002,1.1506853769672337e-17,6.938893903907228e-18,107.4,107.4,107.4,107.4,107.4,0.0,0.0,33.81000000000002,33.80999999999998,33.81,33.81,33.81000000000002,1.6280579355608324e-14,2.3684757858670005e-15,-11.56,-12.16,-11.79,-11.719999999999999,-12.16,0.24433583445741222,-0.10000000000000024
1 -> 2,0.04354400000000001,0.04354399999999999,0.043544000000000006,0.043544,0.04354399999999999,1.0971354589302191e-17,0.0,107.4,107.4,107.4,107.4,107.4,0.0,0.0,33.81000000000002,33.80999999999998,33.81,33.81,33.81000000000002,1.6280579355608324e-14,2.3684757858670005e-15,-13.44,-16.07,-15.085,-15.415,-16.07,1.0314189255583788,-0.8000000000000002
1 -> 2,0.04354400000000001,0.04354399999999999,0.043544000000000006,0.043544,0.04354399999999999,1.0971354589302191e-17,0.0,107.4,107.4,107.4,107.4,107.4,0.0,0.0,33.81000000000002,33.80999999999998,33.81,33.81,33.81000000000002,1.6280579355608324e-14,2.3684757858670005e-15,-13.44,-16.07,-15.085,-15.415,-16.07,1.0314189255583788,-0.8000000000000002
1 -> 2,0.04354400000000001,0.04354399999999999,0.043544000000000006,0.043544,0.04354399999999999,1.0971354589302191e-17,0.0,107.4,107.4,107.4,107.4,107.4,0.0,0.0,33.81000000000002,33.80999999999998,33.81,33.81,33.81000000000002,1.6280579355608324e-14,2.3684757858670005e-15,4.9,-13.67,-5.2575,-6.130000000000001,-13.67,6.994502752161872,6.19
1 -> 2,0.04354400000000001,0.04354399999999999,0.043544000000000006,0.043544,0.04354399999999999,1.0971354589302191e-17,0.0,107.4,107.4,107.4,107.4,107.4,0.0,0.0,33.81000000000002,33.80999999999998,33.81,33.81,33.81000000000002,1.6280579355608324e-14,2.3684757858670005e-15,4.9,-13.67,-5.2575,-6.130000000000001,-13.67,6.994502752161872,6.19
1 -> 2,0.04354400000000001,0.04354399999999999,0.043544000000000006,0.043544,0.04354399999999999,1.0971354589302191e-17,0.0,107.4,107.4,107.4,107.4,107.4,0.0,0.0,33.81000000000002,33.80999999999998,33.81,33.81,33.81000000000002,1.6280579355608324e-14,2.3684757858670005e-15,37.6,13.53,25.9525,26.34,13.53,8.996378090654039,8.023333333333333
1 -> 2,0.04354400000000001,0.04354399999999999,0.043544000000000006,0.043544,0.04354399999999999,1.0971354589302191e-17,0.0,107.4,107.4,107.4,107.4,107.4,0.0,0.0,33.81000000000002,33.80999999999998,33.81,33.81,33.81000000000002,1.6280579355608324e-14,2.3684757858670005e-15,37.6,13.53,25.9525,26.34,13.53,8.996378090654039,8.023333333333333
1 -> 2,0.04354400000000001,0.04354399999999999,0.043544000000000006,0.043544,0.04354399999999999,1.0971354589302191e-17,0.0,107.4,107.4,107.4,107.4,107.4,0.0,0.0,33.81000000000002,33.80999999999998,33.81,33.81,33.81000000000002,1.6280579355608324e-14,2.3684757858670005e-15,54.13,43.52,49.3425,49.86,43.52,3.979418142140883,3.5366666666666666
1 -> 2,0.04354400000000001,0.04354399999999999,0.043544000000000006,0.043544,0.04354399999999999,1.0971354589302191e-17,0.0,107.4,107.4,107.4,107.4,107.4,0.0,0.0,33.81000000000002,33.80999999999998,33.81,33.81,33.81000000000002,1.6280579355608324e-14,2.3684757858670005e-15,54.13,43.52,49.3425,49.86,43.52,3.979418142140883,3.5366666666666666
1 -> 2,0.04226400000000002,0.04226399999999999,0.04226400000000001,0.04226400000000001,0.04226400000000002,1.1506853769672337e-17,6.938893903907228e-18,107.67,107.67,107.67,107.67,107.67,0.0,0.0,33.81000000000002,33.80999999999998,33.81,33.81,33.81000000000002,1.6280579355608324e-14,2.3684757858670005e-15,59.54,56.02,57.910000000000004,58.04,56.02,1.314591191207364,1.173333333333332
1 -> 2,0.04226400000000002,0.04226399999999999,0.04226400000000001,0.04226400000000001,0.04226400000000002,1.1506853769672337e-17,6.938893903907228e-18,107.67,107.67,107.67,107.67,107.67,0.0,0.0,33.81000000000002,33.80999999999998,33.81,33.81,33.81000000000002,1.6280579355608324e-14,2.3684757858670005e-15,59.54,56.02,57.910000000000004,58.04,56.02,1.314591191207364,1.173333333333332
1 -> 2,0.04226400000000002,0.04226399999999999,0.04226400000000001,0.04226400000000001,0.04226400000000002,1.1506853769672337e-17,6.938893903907228e-18,107.67,107.67,107.67,107.67,107.67,0.0,0.0,33.81000000000002,33.80999999999998,33.81,33.81,33.81000000000002,1.6280579355608324e-14,2.3684757858670005e-15,62.77,60.33,61.515,61.480000000000004,60.33,0.9085290309065549,0.8133333333333349
1 -> 2,0.04226400000000002,0.04226399999999999,0.04226400000000001,0.04226400000000001,0.04226400000000002,1.1506853769672337e-17,6.938893903907228e-18,107.67,107.67,107.67,107.67,107.67,0.0,0.0,33.81000000000002,33.80999999999998,33.81,33.81,33.81000000000002,1.6280579355608324e-14,2.3684757858670005e-15,62.77,60.33,61.515,61.480000000000004,60.33,0.9085290309065549,0.8133333333333349
1 -> 2,0.04226400000000002,0.04226399999999999,0.04226400000000001,0.04226400000000001,0.04226400000000002,1.1506853769672337e-17,6.938893903907228e-18,107.67,107.67,107.67,107.67,107.67,0.0,0.0,33.81000000000002,33.80999999999998,33.81,33.81,33.81000000000002,1.6280579355608324e-14,2.3684757858670005e-15,64.84,63.67,64.39750000000001,64.54,63.67,0.44437456047798346,0.326666666666668
1 -> 2,0.04226400000000002,0.04226399999999999,0.04226400000000001,0.04226400000000001,0.04226400000000002,1.1506853769672337e-17,6.938893903907228e-18,107.67,107.67,107.67,107.67,107.67,0.0,0.0,33.81000000000002,33.80999999999998,33.81,33.81,33.81000000000002,1.6280579355608324e-14,2.3684757858670005e-15,64.84,63.67,64.39750000000001,64.54,63.67,0.44437456047798346,0.326666666666668
1 -> 2,0.04226400000000002,0.04226399999999999,0.04226400000000001,0.04226400000000001,0.04226400000000002,1.1506853769672337e-17,6.938893903907228e-18,107.67,107.67,107.67,107.67,107.67,0.0,0.0,33.81000000000002,33.80999999999998,33.81,33.81,33.81000000000002,1.6280579355608324e-14,2.3684757858670005e-15,63.65,54.68,59.68000000000001,60.195,54.68,3.3823586444964695,-2.9899999999999998
1 -> 2,0.04226400000000002,0.04226399999999999,0.04226400000000001,0.04226400000000001,0.04226400000000002,1.1506853769672337e-17,6.938893903907228e-18,107.67,107.67,107.67,107.67,107.67,0.0,0.0,33.81000000000002,33.80999999999998,33.81,33.81,33.81000000000002,1.6280579355608324e-14,2.3684757858670005e-15,63.65,54.68,59.68000000000001,60.195,54.68,3.3823586444964695,-2.9899999999999998
1 -> 2,0.04098300000000001,0.04098299999999999,0.040983000000000006,0.040983000000000006,0.04098300000000001,9.179293821800323e-18,2.3129646346357427e-18,107.67,107.67,107.67,107.67,107.67,0.0,0.0,33.81000000000002,33.80999999999998,33.81,33.81,33.81000000000002,1.6280579355608324e-14,2.3684757858670005e-15,49.67,29.14,39.849999999999994,40.295,29.14,7.664753746859713,-6.843333333333334
1 -> 2,0.04098300000000001,0.04098299999999999,0.040983000000000006,0.040983000000000006,0.04098300000000001,9.179293821800323e-18,2.3129646346357427e-18,107.67,107.67,107.67,107.67,107.67,0.0,0.0,33.81000000000002,33.80999999999998,33.81,33.81,33.81000000000002,1.6280579355608324e-14,2.3684757858670005e-15,49.67,29.14,39.849999999999994,40.295,29.14,7.664753746859713,-6.843333333333334
1 -> 2,0.04098300000000001,0.04098299999999999,0.040983000000000006,0.040983000000000006,0.04098300000000001,9.179293821800323e-18,2.3129646346357427e-18,107.67,107.67,107.67,107.67,107.67,0.0,0.0,33.81000000000002,33.80999999999998,33.81,33.81,33.81000000000002,1.6280579355608324e-14,2.3684757858670005e-15,20.62,-7.43,6.662500000000001,6.73,-7.43,10.468460667643548,-9.350000000000001
1 -> 2,0.04098300000000001,0.04098299999999999,0.040983000000000006,0.040983000000000006,0.04098300000000001,9.179293821800323e-18,2.3129646346357427e-18,107.67,107.67,107.67,107.67,107.67,0.0,0.0,33.81000000000002,33.80999999999998,33.81,33.81,33.81000000000002,1.6280579355608324e-14,2.3684757858670005e-15,20.62,-7.43,6.662500000000001,6.73,-7.43,10.468460667643548,-9.350000000000001
1 -> 2,0.04098300000000001,0.04098299999999999,0.040983000000000006,0.040983000000000006,0.04098300000000001,9.179293821800323e-18,2.3129646346357427e-18,107.67,107.67,107.67,107.67,107.67,0.0,0.0,33.81000000000002,33.80999999999998,33.81,33.81,33.81000000000002,1.6280579355608324e-14,2.3684757858670005e-15,-16.48,-40.1,-28.575000000000003,-28.86,-40.1,8.803549000261201,-7.873333333333334
1 -> 2,0.04098300000000001,0.04098299999999999,0.040983000000000006,0.040983000000000006,0.04098300000000001,9.179293821800323e-18,2.3129646346357427e-18,107.67,107.67,107.67,107.67,107.67,0.0,0.0,33.81000000000002,33.80999999999998,33.81,33.81,33.81000000000002,1.6280579355608324e-14,2.3684757858670005e-15,-16.48,-40.1,-28.575000000000003,-28.86,-40.1,8.803549000261201,-7.873333333333334
1 -> 2,0.04098300000000001,0.04098299999999999,0.040983000000000006,0.040983000000000006,0.04098300000000001,9.179293821800323e-18,2.3129646346357427e-18,107.67,107.67,107.67,107.67,107.67,0.0,0.0,33.81000000000002,33.80999999999998,33.81,33.81,33.81000000000002,1.6280579355608324e-14,2.3684757858670005e-15,-47.1,-66.71,-57.06,-57.215,-66.71,7.318097430343489,-6.536666666666664
1 -> 2,0.04098300000000001,0.04098299999999999,0.040983000000000006,0.040983000000000006,0.04098300000000001,9.179293821800323e-18,2.3129646346357427e-18,107.67,107.67,107.67,107.67,107.67,0.0,0.0,33.81000000000002,33.80999999999998,33.81,33.81,33.81000000000002,1.6280579355608324e-14,2.3684757858670005e-15,-47.1,-66.71,-57.06,-57.215,-66.71,7.318097430343489,-6.536666666666664
1 -> 2,0.04354400000000001,0.04354399999999999,0.043544000000000006,0.043544,0.04354399999999999,1.0971354589302191e-17,0.0,107.67,107.67,107.67,107.67,107.67,0.0,0.0,33.81000000000002,33.80999999999998,33.81,33.81,33.81000000000002,1.6280579355608324e-14,2.3684757858670005e-15,-72.02,-77.75,-75.72999999999999,-76.57499999999999,-77.75,2.249366577505766,-1.75
1 -> 2,0.04354400000000001,0.04354399999999999,0.043544000000000006,0.043544,0.04354399999999999,1.0971354589302191e-17,0.0,107.67,107.67,107.67,107.67,107.67,0.0,0.0,33.81000000000002,33.80999999999998,33.81,33.81,33.81000000000002,1.6280579355608324e-14,2.3684757858670005e-15,-72.02,-77.75,-75.72999999999999,-76.57499999999999,-77.75,2.249366577505766,-1.75
1 -> 2,0.04354400000000001,0.04354399999999999,0.043544000000000006,0.043544,0.04354399999999999,1.0971354589302191e-17,0.0,107.67,107.67,107.67,107.67,107.67,0.0,0.0,33.81000000000002,33.80999999999998,33.81,33.81,33.81000000000002,1.6280579355608324e-14,2.3684757858670005e-15,-55.39,-74.41,-65.5425,-66.185,-74.41,7.138835251635941,6.339999999999999
1 -> 2,0.04354400000000001,0.04354399999999999,0.043544000000000006,0.043544,0.04354399999999999,1.0971354589302191e-17,0.0,107.67,107.67,107.67,107.67,107.67,0.0,0.0,33.81000000000002,33.80999999999998,33.81,33.81,33.81000000000002,1.6280579355608324e-14,2.3684757858670005e-15,-55.39,-74.41,-65.5425,-66.185,-74.41,7.138835251635941,6.339999999999999
1 -> 2,0.04354400000000001,0.04354399999999999,0.043544000000000006,0.043544,0.04354399999999999,1.0971354589302191e-17,0.0,107.67,107.67,107.67,107.67,107.67,0.0,0.0,33.81000000000002,33.80999999999998,33.81,33.81,33.81000000000002,1.6280579355608324e-14,2.3684757858670005e-15,-25.31,-47.42,-36.035,-35.705,-47.42,8.26228933165621,7.370000000000001
1 -> 2,0.04354400000000001,0.04354399999999999,0.043544000000000006,0.043544,0.04354399999999999,1.0971354589302191e-17,0.0,107.67,107.67,107.67,107.67,107.67,0.0,0.0,33.81000000000002,33.80999999999998,33.81,33.81,33.81000000000002,1.6280579355608324e-14,2.3684757858670005e-15,-25.31,-47.42,-36.035,-35.705,-47.42,8.26228933165621,7.370000000000001
1 -> 2,0.04354400000000001,0.04354399999999999,0.043544000000000006,0.043544,0.04354399999999999,1.0971354589302191e-17,0.0,107.67,107.67,107.67,107.67,107.67,0.0,0.0,33.81000000000002,33.80999999999998,33.81,33.81,33.81000000000002,1.6280579355608324e-14,2.3684757858670005e-15,-11.63,-19.86,-15.105,-14.465,-19.86,3.1252719881635898,2.7433333333333327
1 -> 2,0.04354400000000001,0.04354399999999999,0.043544000000000006,0.043544,0.04354399999999999,1.0971354589302191e-17,0.0,107.67,107.67,107.67,107.67,107.67,0.0,0.0,33.81000000000002,33.80999999999998,33.81,33.81,33.81000000000002,1.6280579355608324e-14,2.3684757858670005e-15,-11.63,-19.86,-15.105,-14.465,-19.86,3.1252719881635898,2.7433333333333327
1 -> 2,0.04226400000000002,0.04226399999999999,0.04226400000000001,0.04226400000000001,0.04226400000000002,1.1506853769672337e-17,6.938893903907228e-18,107.67,107.67,107.67,107.67,107.67,0.0,0.0,33.81000000000002,33.80999999999998,33.81,33.81,33.81000000000002,1.6280579355608324e-14,2.3684757858670005e-15,-9.95,-11.0,-10.6125,-10.75,-11.0,0.3998984246030487,0.35000000000000026
1 -> 2,0.04226400000000002,0.04226399999999999,0.04226400000000001,0.04226400000000001,0.04226400000000002,1.1506853769672337e-17,6.938893903907228e-18,107.67,107.67,107.67,107.67,107.67,0.0,0.0,33.81000000000002,33.80999999999998,33.81,33.81,33.81000000000002,1.6280579355608324e-14,2.3684757858670005e-15,-9.95,-11.0,-10.6125,-10.75,-11.0,0.3998984246030487,0.35000000000000026
1 -> 2,0.04226400000000002,0.04226399999999999,0.04226400000000001,0.04226400000000001,0.04226400000000002,1.1506853769672337e-17,6.938893903907228e-18,107.67,107.67,107.67,107.67,107.67,0.0,0.0,33.81000000000002,33.80999999999998,33.81,33.81,33.81000000000002,1.6280579355608324e-14,2.3684757858670005e-15,9.96,-8.0,-0.07749999999999968,-1.1350000000000002,-8.0,6.783348638393873,5.986666666666667
1 -> 2,0.04226400000000002,0.04226399999999999,0.04226400000000001,0.04226400000000001,0.04226400000000002,1.1506853769672337e-17,6.938893903907228e-18,107.67,107.67,107.67,107.67,107.67,0.0,0.0,33.81000000000002,33.80999999999998,33.81,33.81,33.81000000000002,1.6280579355608324e-14,2.3684757858670005e-15,9.96,-8.0,-0.07749999999999968,-1.1350000000000002,-8.0,6.783348638393873,5.986666666666667
1 -> 2,0.04226400000000002,0.04226399999999999,0.04226400000000001,0.04226400000000001,0.04226400000000002,1.1506853769672337e-17,6.938893903907228e-18,107.67,107.67,107.67,107.67,107.67,0.0,0.0,33.81000000000002,33.80999999999998,33.81,33.81,33.81000000000002,1.6280579355608324e-14,2.3684757858670005e-15,41.36,19.17,31.175,32.085,19.17,8.350522438745973,7.396666666666666
1 -> 2,0.04226400000000002,0.04226399999999999,0.04226400000000001,0.04226400000000001,0.04226400000000002,1.1506853769672337e-17,6.938893903907228e-18,107.67,107.67,107.67,107.67,107.67,0.0,0.0,33.81000000000002,33.80999999999998,33.81,33.81,33.81000000000002,1.6280579355608324e-14,2.3684757858670005e-15,41.36,19.17,31.175,32.085,19.17,8.350522438745973,7.396666666666666
1 -> 2,0.04226400000000002,0.04226399999999999,0.04226400000000001,0.04226400000000001,0.04226400000000002,1.1506853769672337e-17,6.938893903907228e-18,107.67,107.67,107.67,107.67,107.67,0.0,0.0,33.81000000000002,33.80999999999998,33.81,33.81,33.81000000000002,1.6280579355608324e-14,2.3684757858670005e-15,45.83,44.45,45.3525,45.565,44.45,0.5394615370904563,0.3299999999999983
1 -> 2,0.04226400000000002,0.04226399999999999,0.04226400000000001,0.04226400000000001,0.04226400000000002,1.1506853769672337e-17,6.938893903907228e-18,107.67,107.67,107.67,107.67,107.67,0.0,0.0,33.81000000000002,33.80999999999998,33.81,33.81,33.81000000000002,1.6280579355608324e-14,2.3684757858670005e-15,45.83,44.45,45.3525,45.565,44.45,0.5394615370904563,0.3299999999999983
1 -> 2,0.04354400000000001,0.04354399999999999,0.043544000000000006,0.043544,0.04354399999999999,1.0971354589302191e-17,0.0,108.29,108.29,108.29,108.29,108.29,0.0,0.0,33.81000000000002,33.80999999999998,33.81,33.81,33.81000000000002,1.6280579355608324e-14,2.3684757858670005e-15,44.72,38.85,42.1725,42.56,38.85,2.2176719211822107,-1.9566666666666659
1 -> 2,0.04354400000000001,0.04354399999999999,0.043544000000000006,0.043544,0.04354399999999999,1.0971354589302191e-17,0.0,108.29,108.29,108.29,108.29,108.29,0.0,0.0,33.81000000000002,33.80999999999998,33.81,33.81,33.81000000000002,1.6280579355608324e-14,2.3684757858670005e-15,44.72,38.85,42.1725,42.56,38.85,2.2176719211822107,-1.9566666666666659
1 -> 2,0.04354400000000001,0.04354399999999999,0.043544000000000006,0.043544,0.04354399999999999,1.0971354589302191e-17,0.0,108.29,108.29,108.29,108.29,108.29,0.0,0.0,33.81000000000002,33.80999999999998,33.81,33.81,33.81000000000002,1.6280579355608324e-14,2.3684757858670005e-15,35.39,22.34,29.0675,29.27,22.34,4.8643209957814255,-4.3500000000000005
1 -> 2,0.04354400000000001,0.04354399999999999,0.043544000000000006,0.043544,0.04354399999999999,1.0971354589302191e-17,0.0,108.29,108.29,108.29,108.29,108.29,0.0,0.0,33.81000000000002,33.80999999999998,33.81,33.81,33.81000000000002,1.6280579355608324e-14,2.3684757858670005e-15,35.39,22.34,29.0675,29.27,22.34,4.8643209957814255,-4.3500000000000005
1 -> 2,0.04354400000000001,0.04354399999999999,0.043544000000000006,0.043544,0.04354399999999999,1.0971354589302191e-17,0.0,108.29,108.29,108.29,108.29,108.29,0.0,0.0,33.81000000000002,33.80999999999998,33.81,33.81,33.81000000000002,1.6280579355608324e-14,2.3684757858670005e-15,16.79,-6.47,5.6850000000000005,6.21,-6.47,8.69635124635614,-7.753333333333333
1 -> 2,0.04354400000000001,0.04354399999999999,0.043544000000000006,0.043544,0.04354399999999999,1.0971354589302191e-17,0.0,108.29,108.29,108.29,108.29,108.29,0.0,0.0,33.81000000000002,33.80999999999998,33.81,33.81,33.81000000000002,1.6280579355608324e-14,2.3684757858670005e-15,16.79,-6.47,5.6850000000000005,6.21,-6.47,8.69635124635614,-7.753333333333333
1 -> 2,0.04354400000000001,0.04354399999999999,0.043544000000000006,0.043544,0.04354399999999999,1.0971354589302191e-17,0.0,108.29,108.29,108.29,108.29,108.29,0.0,0.0,33.81000000000002,33.80999999999998,33.81,33.81,33.81000000000002,1.6280579355608324e-14,2.3684757858670005e-15,-15.41,-34.21,-25.805,-26.8,-34.21,7.098343116530787,-6.266666666666667
1 -> 2,0.04354400000000001,0.04354399999999999,0.043544000000000006,0.043544,0.04354399999999999,1.0971354589302191e-17,0.0,108.29,108.29,108.29,108.29,108.29,0.0,0.0,33.81000000000002,33.80999999999998,33.81,33.81,33.81000000000002,1.6280579355608324e-14,2.3684757858670005e-15,-15.41,-34.21,-25.805,-26.8,-34.21,7.098343116530787,-6.266666666666667
1 -> 2,0.04226400000000002,0.04226399999999999,0.04226400000000001,0.04226400000000001,0.04226400000000002,1.1506853769672337e-17,6.938893903907228e-18,108.29,108.29,108.29,108.29,108.29,0.0,0.0,33.81000000000002,33.80999999999998,33.81,33.81,33.81000000000002,1.6280579355608324e-14,2.3684757858670005e-15,-31.36,-36.0,-34.2625,-34.845,-36.0,1.8475169146722312,1.5466666666666669
1 -> 2,0.04226400000000002,0.04226399999999999,0.04226400000000001,0.04226400000000001,0.04226400000000002,1.1506853769672337e-17,6.938893903907228e-18,108.29,108.29,108.29,108.29,108.29,0.0,0.0,33.81000000000002,33.80999999999998,33.81,33.81,33.81000000000002,1.6280579355608324e-14,2.3684757858670005e-15,-31.36,-36.0,-34.2625,-34.845,-36.0,1.8475169146722312,1.5466666666666669
1 -> 2,0.04226400000000002,0.04226399999999999,0.04226400000000001,0.04226400000000001,0.04226400000000002,1.1506853769672337e-17,6.938893903907228e-18,108.29,108.29,108.29,108.29,108.29,0.0,0.0,33.81000000000002,33.80999999999998,33.81,33.81,33.81000000000002,1.6280579355608324e-14,2.3684757858670005e-15,-19.8,-28.42,-24.05,-23.990000000000002,-28.42,3.2160379350996475,2.8733333333333335
1 -> 2,0.04226400000000002,0.04226399999999999,0.04226400000000001,0.04226400000000001,0.04226400000000002,1.1506853769672337e-17,6.938893903907228e-18,108.29,108.29,108.29,108.29,108.29,0.0,0.0,33.81000000000002,33.80999999999998,33.81,33.81,33.81000000000002,1.6280579355608324e-14,2.3684757858670005e-15,-19.8,-28.42,-24.05,-23.990000000000002,-28.42,3.2160379350996475,2.8733333333333335
1 -> 2,0.04226400000000002,0.04226399999999999,0.04226400000000001,0.04226400000000001,0.04226400000000002,1.1506853769672337e-17,6.938893903907228e-18,108.29,108.29,108.29,108.29,108.29,0.0,0.0,33.81000000000002,33.80999999999998,33.81,33.81,33.81000000000002,1.6280579355608324e-14,2.3684757858670005e-15,-11.12,-17.26,-14.065,-13.940000000000001,-17.26,2.290911390691487,2.0466666666666673
1 -> 2,0.04226400000000002,0.04226399999999999,0.04226400000000001,0.04226400000000001,0.04226400000000002,1.1506853769672337e-17,6.938893903907228e-18,108.29,108.29,108.29,108.29,108.29,0.0,0.0,33.81000000000002,33.80999999999998,33.81,33.81,33.81000000000002,1.6280579355608324e-14,2.3684757858670005e-15,-11.12,-17.26,-14.065,-13.940000000000001,-17.26,2.290911390691487,2.0466666666666673
1 -> 2,0.04226400000000002,0.04226399999999999,0.04226400000000001,0.04226400000000001,0.04226400000000002,1.1506853769672337e-17,6.938893903907228e-18,108.29,108.29,108.29,108.29,108.29,0.0,0.0,33.81000000000002,33.80999999999998,33.81,33.81,33.81000000000002,1.6280579355608324e-14,2.3684757858670005e-15,-5.47,-9.5,-7.4125,-7.34,-9.5,1.5055127863953863,1.3433333333333335
1 -> 2,0.04226400000000002,0.04226399999999999,0.04226400000000001,0.04226400000000001,0.04226400000000002,1.1506853769672337e-17,6.938893903907228e-18,108.29,108.29,108.29,108.29,108.29,0.0,0.0,33.81000000000002,33.80999999999998,33.81,33.81,33.81000000000002,1.6280579355608324e-14,2.3684757858670005e-15,-5.47,-9.5,-7.4125,-7.34,-9.5,1.5055127863953863,1.3433333333333335
1 -> 2,0.04226400000000002,0.04226399999999999,0.04226400000000001,0.04226400000000001,0.04226400000000002,1.1506853769672337e-17,6.938893903907228e-18,108.29,108.29,108.29,108.29,108.29,0.0,0.0,33.81000000000002,33.80999999999998,33.81,33.81,33.81000000000002,1.6280579355608324e-14,2.3684757858670005e-15,-2.55,-4.49,-3.4725,-3.425,-4.49,0.7205683520666171,0.6466666666666668
1 -> 2,0.04226400000000002,0.04226399999999999,0.04226400000000001,0.04226400000000001,0.04226400000000002,1.1506853769672337e-17,6.938893903907228e-18,108.29,108.29,108.29,108.29,108.29,0.0,0.0,33.81000000000002,33.80999999999998,33.81,33.81,33.81000000000002,1.6280579355608324e-14,2.3684757858670005e-15,-2.55,-4.49,-3.4725,-3.425,-4.49,0.7205683520666171,0.6466666666666668
1 -> 2,0.04226400000000002,0.04226399999999999,0.04226400000000001,0.04226400000000001,0.04226400000000002,1.1506853769672337e-17,6.938893903907228e-18,108.29,108.29,108.29,108.29,108.29,0.0,0.0,33.81000000000002,33.80999999999998,33.81,33.81,33.81000000000002,1.6280579355608324e-14,2.3684757858670005e-15,0.92,-1.89,-0.535,-0.5850000000000001,-1.89,1.05220007603117,0.9366666666666666
1 -> 2,0.04226400000000002,0.04226399999999999,0.04226400000000001,0.04226400000000001,0.04226400000000002,1.1506853769672337e-17,6.938893903907228e-18,108.29,108.29,108.29,108.29,108.29,0.0,0.0,33.81000000000002,33.80999999999998,33.81,33.81,33.81000000000002,1.6280579355608324e-14,2.3684757858670005e-15,0.92,-1.89,-0.535,-0.5850000000000001,-1.89,1.05220007603117,0.9366666666666666
1 -> 2,0.04226400000000002,0.04226399999999999,0.04226400000000001,0.04226400000000001,0.04226400000000002,1.1506853769672337e-17,6.938893903907228e-18,108.29,108.29,108.29,108.29,108.29,0.0,0.0,33.81000000000002,33.80999999999998,33.81,33.81,33.81000000000002,1.6280579355608324e-14,2.3684757858670005e-15,3.64,1.86,2.82,2.8899999999999997,1.86,0.6634380151905678,0.5933333333333334
1 -> 2,0.04226400000000002,0.04226399999999999,0.04226400000000001,0.04226400000000001,0.04226400000000002,1.1506853769672337e-17,6.938893903907228e-18,108.29,108.29,108.29,108.29,108.29,0.0,0.0,33.81000000000002,33.80999999999998,33.81,33.81,33.81000000000002,1.6280579355608324e-14,2.3684757858670005e-15,3.64,1.86,2.82,2.8899999999999997,1.86,0.6634380151905678,0.5933333333333334
1 -> 2,0.04226400000000002,0.04226399999999999,0.04226400000000001,0.04226400000000001,0.04226400000000002,1.1506853769672337e-17,6.938893903907228e-18,108.29,108.29,108.29,108.29,108.29,0.0,0.0,33.81000000000002,33.80999999999998,33.81,33.81,33.81000000000002,1.6280579355608324e-14,2.3684757858670005e-15,7.88,4.2,5.8525,5.665,4.2,1.384582518306511,1.2266666666666666
1 -> 2,0.04226400000000002,0.04226399999999999,0.04226400000000001,0.04226400000000001,0.04226400000000002,1.1506853769672337e-17,6.938893903907228e-18,108.29,108.29,108.29,108.29,108.29,0.0,0.0,33.81000000000002,33.80999999999998,33.81,33.81,33.81000000000002,1.6280579355608324e-14,2.3684757858670005e-15,7.88,4.2,5.8525,5.665,4.2,1.384582518306511,1.2266666666666666
1 -> 2,0.04226400000000002,0.04226399999999999,0.04226400000000001,0.04226400000000001,0.04226400000000002,1.1506853769672337e-17,6.938893903907228e-18,108.29,108.29,108.29,108.29,108.29,0.0,0.0,33.81000000000002,33.80999999999998,33.81,33.81,33.81000000000002,1.6280579355608324e-14,2.3684757858670005e-15,13.79,9.7,11.9675,12.190000000000001,9.7,1.5491025627762676,1.3633333333333333
1 -> 2,0.04226400000000002,0.04226399999999999,0.04226400000000001,0.04226400000000001,0.04226400000000002,1.1506853769672337e-17,6.938893903907228e-18,108.29,108.29,108.29,108.29,108.29,0.0,0.0,33.81000000000002,33.80999999999998,33.81,33.81,33.81000000000002,1.6280579355608324e-14,2.3684757858670005e-15,13.79,9.7,11.9675,12.190000000000001,9.7,1.5491025627762676,1.3633333333333333
1 -> 2,0.04226400000000002,0.04226399999999999,0.04226400000000001,0.04226400000000001,0.04226400000000002,1.1506853769672337e-17,6.938893903907228e-18,108.29,108.29,108.29,108.29,108.29,0.0,0.0,33.81000000000002,33.80999999999998,33.81,33.81,33.81000000000002,1.6280579355608324e-14,2.3684757858670005e-15,14.23,13.75,13.985,13.98,13.75,0.17895530168173296,0.05666666666666664
1 -> 2,0.04226400000000002,0.04226399999999999,0.04226400000000001,0.04226400000000001,0.04226400000000002,1.1506853769672337e-17,6.938893903907228e-18,108.29,108.29,108.29,108.29,108.29,0.0,0.0,33.81000000000002,33.80999999999998,33.81,33.81,33.81000000000002,1.6280579355608324e-14,2.3684757858670005e-15,14.23,13.75,13.985,13.98,13.75,0.17895530168173296,0.05666666666666664
1 -> 2,0.04226400000000002,0.04226399999999999,0.04226400000000001,0.04226400000000001,0.04226400000000002,1.1506853769672337e-17,6.938893903907228e-18,108.29,108.29,108.29,108.29,108.29,0.0,0.0,33.81000000000002,33.80999999999998,33.81,33.81,33.81000000000002,1.6280579355608324e-14,2.3684757858670005e-15,31.03,15.97,22.735,21.97,15.97,5.680129840065278,5.0200000000000005
1 -> 2,0.04226400000000002,0.04226399999999999,0.04226400000000001,0.04226400000000001,0.04226400000000002,1.1506853769672337e-17,6.938893903907228e-18,108.29,108.29,108.29,108.29,108.29,0.0,0.0,33.81000000000002,33.80999999999998,33.81,33.81,33.81000000000002,1.6280579355608324e-14,2.3684757858670005e-15,31.03,15.97,22.735,21.97,15.97,5.680129840065278,5.0200000000000005
1 -> 2,0.04226400000000002,0.04226399999999999,0.04226400000000001,0.04226400000000001,0.04226400000000002,1.1506853769672337e-17,6.938893903907228e-18,108.29,108.29,108.29,108.29,108.29,0.0,0.0,33.81000000000002,33.80999999999998,33.81,33.81,33.81000000000002,1.6280579355608324e-14,2.3684757858670005e-15,53.38,38.04,46.495,47.28,38.04,5.793830770742274,5.113333333333334
1 -> 2,0.04226400000000002,0.04226399999999999,0.04226400000000001,0.04226400000000001,0.04226400000000002,1.1506853769672337e-17,6.938893903907228e-18,108.29,108.29,108.29,108.29,108.29,0.0,0.0,33.81000000000002,33.80999999999998,33.81,33.81,33.81000000000002,1.6280579355608324e-14,2.3684757858670005e-15,53.38,38.04,46.495,47.28,38.04,5.793830770742274,5.113333333333334
1 -> 2,0.04354400000000001,0.04354399999999999,0.043544000000000006,0.043544,0.04354399999999999,1.0971354589302191e-17,0.0,108.25,108.25,108.25,108.25,108.25,0.0,0.0,33.81000000000002,33.80999999999998,33.81,33.81,33.81000000000002,1.6280579355608324e-14,2.3684757858670005e-15,54.7,46.96,51.6925,52.555,46.96,3.0227253844833477,-2.5800000000000005
1 -> 2,0.04354400000000001,0.04354399999999999,0.043544000000000006,0.043544,0.04354399999999999,1.0971354589302191e-17,0.0,108.25,108.25,108.25,108.25,108.25,0.0,0.0,33.81000000000002,33.80999999999998,33.81,33.81,33.81000000000002,1.6280579355608324e-14,2.3684757858670005e-15,54.7,46.96,51.6925,52.555,46.96,3.0227253844833477,-2.5800000000000005
1 -> 2,0.04354400000000001,0.04354399999999999,0.043544000000000006,0.043544,0.04354399999999999,1.0971354589302191e-17,0.0,108.25,108.25,108.25,108.25,108.25,0.0,0.0,33.81000000000002,33.80999999999998,33.81,33.81,33.81000000000002,1.6280579355608324e-14,2.3684757858670005e-15,41.59,23.2,32.4125,32.43,23.2,6.865968158242508,-6.130000000000002
1 -> 2,0.04354400000000001,0.04354399999999999,0.043544000000000006,0.043544,0.04354399999999999,1.0971354589302191e-17,0.0,108.25,108.25,108.25,108.25,108.25,0.0,0.0,33.81000000000002,33.80999999999998,33.81,33.81,33.81000000000002,1.6280579355608324e-14,2.3684757858670005e-15,41.59,23.2,32.4125,32.43,23.2,6.865968158242508,-6.130000000000002
1 -> 2,0.04354400000000001,0.04354399999999999,0.043544000000000006,0.043544,0.04354399999999999,1.0971354589302191e-17,0.0,108.25,108.25,108.25,108.25,108.25,0.0,0.0,33.81000000000002,33.80999999999998,33.81,33.81,33.81000000000002,1.6280579355608324e-14,2.3684757858670005e-15,17.42,1.91,9.545,9.425,1.91,5.7792495187524136,-5.170000000000001
1 -> 2,0.04354400000000001,0.04354399999999999,0.043544000000000006,0.043544,0.04354399999999999,1.0971354589302191e-17,0.0,108.25,108.25,108.25,108.25,108.25,0.0,0.0,33.81000000000002,33.80999999999998,33.81,33.81,33.81000000000002,1.6280579355608324e-14,2.3684757858670005e-15,17.42,1.91,9.545,9.425,1.91,5.7792495187524136,-5.170000000000001
1 -> 2,0.04354400000000001,0.04354399999999999,0.043544000000000006,0.043544,0.04354399999999999,1.0971354589302191e-17,0.0,108.25,108.25,108.25,108.25,108.25,0.0,0.0,33.81000000000002,33.80999999999998,33.81,33.81,33.81000000000002,1.6280579355608324e-14,2.3684757858670005e-15,-2.83,-14.54,-8.9525,-9.219999999999999,-14.54,4.376359074618992,-3.903333333333333
1 -> 2,0.04354400000000001,0.04354399999999999,0.043544000000000006,0.043544,0.04354399999999999,1.0971354589302191e-17,0.0,108.25,108.25,108.25,108.25,108.25,0.0,0.0,33.81000000000002,33.80999999999998,33.81,33.81,33.81000000000002,1.6280579355608324e-14,2.3684757858670005e-15,-2.83,-14.54,-8.9525,-9.219999999999999,-14.54,4.376359074618992,-3.903333333333333
1 -> 2,0.04482500000000001,0.044825000000000004,0.044825000000000004,0.04482500000000001,0.04482500000000001,6.009258394948637e-18,2.3129646346357427e-18,108.25,108.25,108.25,108.25,108.25,0.0,0.0,33.81000000000002,33.80999999999998,33.81,33.81,33.81000000000002,1.6280579355608324e-14,2.3684757858670005e-15,-17.31,-23.6,-20.545,-20.634999999999998,-23.6,2.3385305215027667,-2.0966666666666676
1 -> 2,0.04482500000000001,0.044825000000000004,0.044825000000000004,0.04482500000000001,0.04482500000000001,6.009258394948637e-18,2.3129646346357427e-18,108.25,108.25,108.25,108.25,108.25,0.0,0.0,33.81000000000002,33.80999999999998,33.81,33.81,33.81000000000002,1.6280579355608324e-14,2.3684757858670005e-15,-17.31,-23.6,-20.545,-20.634999999999998,-23.6,2.3385305215027667,-2.0966666666666676
1 -> 2,0.04482500000000001,0.044825000000000004,0.044825000000000004,0.04482500000000001,0.04482500000000001,6.009258394948637e-18,2.3129646346357427e-18,108.25,108.25,108.25,108.25,108.25,0.0,0.0,33.81000000000002,33.80999999999998,33.81,33.81,33.81000000000002,1.6280579355608324e-14,2.3684757858670005e-15,-25.58,-31.88,-28.72,-28.71,-31.88,2.350138293803154,-2.1
1 -> 2,0.04482500000000001,0.044825000000000004,0.044825000000000004,0.04482500000000001,0.04482500000000001,6.009258394948637e-18,2.3129646346357427e-18,108.25,108.25,108.25,108.25,108.25,0.0,0.0,33.81000000000002,33.80999999999998,33.81,33.81,33.81000000000002,1.6280579355608324e-14,2.3684757858670005e-15,-25.58,-31.88,-28.72,-28.71,-31.88,2.350138293803154,-2.1
1 -> 2,0.04482500000000001,0.044825000000000004,0.044825000000000004,0.04482500000000001,0.04482500000000001,6.009258394948637e-18,2.3129646346357427e-18,108.25,108.25,108.25,108.25,108.25,0.0,0.0,33.81000000000002,33.80999999999998,33.81,33.81,33.81000000000002,1.6280579355608324e-14,2.3684757858670005e-15,-33.9,-38.93,-36.505,-36.595,-38.93,1.8759864072002232,-1.676666666666667
1 -> 2,0.04482500000000001,0.044825000000000004,0.044825000000000004,0.04482500000000001,0.04482500000000001,6.009258394948637e-18,2.3129646346357427e-18,108.25,108.25,108.25,108.25,108.25,0.0,0.0,33.81000000000002,33.80999999999998,33.81,33.81,33.81000000000002,1.6280579355608324e-14,2.3684757858670005e-15,-33.9,-38.93,-36.505,-36.595,-38.93,1.8759864072002232,-1.676666666666667
1 -> 2,0.04482500000000001,0.044825000000000004,0.044825000000000004,0.04482500000000001,0.04482500000000001,6.009258394948637e-18,2.3129646346357427e-18,108.25,108.25,108.25,108.25,108.25,0.0,0.0,33.81000000000002,33.80999999999998,33.81,33.81,33.81000000000002,1.6280579355608324e-14,2.3684757858670005e-15,-40.29,-43.81,-42.11,-42.17,-43.81,1.3162066707018332,-1.1733333333333344
1 -> 2,0.04482500000000001,0.044825000000000004,0.044825000000000004,0.04482500000000001,0.04482500000000001,6.009258394948637e-18,2.3129646346357427e-18,108.25,108.25,108.25,108.25,108.25,0.0,0.0,33.81000000000002,33.80999999999998,33.81,33.81,33.81000000000002,1.6280579355608324e-14,2.3684757858670005e-15,-40.29,-43.81,-42.11,-42.17,-43.81,1.3162066707018332,-1.1733333333333344
1 -> 2,0.04226400000000002,0.04226399999999999,0.04226400000000001,0.04226400000000001,0.04226400000000002,1.1506853769672337e-17,6.938893903907228e-18,108.25,108.25,108.25,108.25,108.25,0.0,0.0,33.81000000000002,33.80999999999998,33.81,33.81,33.81000000000002,1.6280579355608324e-14,2.3684757858670005e-15,-39.94,-44.45,-42.8975,-43.599999999999994,-44.45,1.8094387942121737,1.503333333333335
1 -> 2,0.04226400000000002,0.04226399999999999,0.04226400000000001,0.04226400000000001,0.04226400000000002,1.1506853769672337e-17,6.938893903907228e-18,108.25,108.25,108.25,108.25,108.25,0.0,0.0,33.81000000000002,33.80999999999998,33.81,33.81,33.81000000000002,1.6280579355608324e-14,2.3684757858670005e-15,-39.94,-44.45,-42.8975,-43.599999999999994,-44.45,1.8094387942121737,1.503333333333335
1 -> 2,0.04226400000000002,0.04226399999999999,0.04226400000000001,0.04226400000000001,0.04226400000000002,1.1506853769672337e-17,6.938893903907228e-18,108.25,108.25,108.25,108.25,108.25,0.0,0.0,33.81000000000002,33.80999999999998,33.81,33.81,33.81000000000002,1.6280579355608324e-14,2.3684757858670005e-15,-14.64,-35.3,-25.3075,-25.645000000000003,-35.3,7.729933295313743,6.886666666666666
1 -> 2,0.04226400000000002,0.04226399999999999,0.04226400000000001,0.04226400000000001,0.04226400000000002,1.1506853769672337e-17,6.938893903907228e-18,108.25,108.25,108.25,108.25,108.25,0.0,0.0,33.81000000000002,33.80999999999998,33.81,33.81,33.81000000000002,1.6280579355608324e-14,2.3684757858670005e-15,-14.64,-35.3,-25.3075,-25.645000000000003,-35.3,7.729933295313743,6.886666666666666
1 -> 2,0.04226400000000002,0.04226399999999999,0.04226400000000001,0.04226400000000001,0.04226400000000002,1.1506853769672337e-17,6.938893903907228e-18,108.25,108.25,108.25,108.25,108.25,0.0,0.0,33.81000000000002,33.80999999999998,33.81,33.81,33.81000000000002,1.6280579355608324e-14,2.3684757858670005e-15,10.97,-7.32,2.1900000000000004,2.555,-7.32,6.8297767167016525,6.096666666666668
1 -> 2,0.04226400000000002,0.04226399999999999,0.04226400000000001,0.04226400000000001,0.04226400000000002,1.1506853769672337e-17,6.938893903907228e-18,108.25,108.25,108.25,108.25,108.25,0.0,0.0,33.81000000000002,33.80999999999998,33.81,33.81,33.81000000000002,1.6280579355608324e-14,2.3684757858670005e-15,10.97,-7.32,2.1900000000000004,2.555,-7.32,6.8297767167016525,6.096666666666668
1 -> 2,0.04226400000000002,0.04226399999999999,0.04226400000000001,0.04226400000000001,0.04226400000000002,1.1506853769672337e-17,6.938893903907228e-18,108.25,108.25,108.25,108.25,108.25,0.0,0.0,33.81000000000002,33.80999999999998,33.81,33.81,33.81000000000002,1.6280579355608324e-14,2.3684757858670005e-15,22.48,15.44,19.5175,20.075,15.44,2.6825955248602056,2.346666666666667
1 -> 2,0.04226400000000002,0.04226399999999999,0.04226400000000001,0.04226400000000001,0.04226400000000002,1.1506853769672337e-17,6.938893903907228e-18,108.25,108.25,108.25,108.25,108.25,0.0,0.0,33.81000000000002,33.80999999999998,33.81,33.81,33.81000000000002,1.6280579355608324e-14,2.3684757858670005e-15,22.48,15.44,19.5175,20.075,15.44,2.6825955248602056,2.346666666666667
1 -> 2,0.04354400000000001,0.04354399999999999,0.043544000000000006,0.043544,0.04354399999999999,1.0971354589302191e-17,0.0,108.25,108.25,108.25,108.25,108.25,0.0,0.0,33.81000000000002,33.80999999999998,33.81,33.81,33.81000000000002,1.6280579355608324e-14,2.3684757858670005e-15,22.78,20.91,21.9575,22.07,20.91,0.7148557546806215,-0.6233333333333336
1 -> 2,0.04354400000000001,0.04354399999999999,0.043544000000000006,0.043544,0.04354399999999999,1.0971354589302191e-17,0.0,108.25,108.25,108.25,108.25,108.25,0.0,0.0,33.81000000000002,33.80999999999998,33.81,33.81,33.81000000000002,1.6280579355608324e-14,2.3684757858670005e-15,22.78,20.91,21.9575,22.07,20.91,0.7148557546806215,-0.6233333333333336
1 -> 2,0.04354400000000001,0.04354399999999999,0.043544000000000006,0.043544,0.04354399999999999,1.0971354589302191e-17,0.0,108.25,108.25,108.25,108.25,108.25,0.0,0.0,33.81000000000002,33.80999999999998,33.81,33.81,33.81000000000002,1.6280579355608324e-14,2.3684757858670005e-15,20.12,17.72,18.9375,18.955,17.72,0.8934868493716076,-0.8000000000000007
1 -> 2,0.04354400000000001,0.04354399999999999,0.043544000000000006,0.043544,0.04354399999999999,1.0971354589302191e-17,0.0,108.25,108.25,108.25,108.25,108.25,0.0,0.0,33.81000000000002,33.80999999999998,33.81,33.81,33.81000000000002,1.6280579355608324e-14,2.3684757858670005e-15,20.12,17.72,18.9375,18.955,17.72,0.8934868493716076,-0.8000000000000007
1 -> 2,0.04354400000000001,0.04354399999999999,0.043544000000000006,0.043544,0.04354399999999999,1.0971354589302191e-17,0.0,108.25,108.25,108.25,108.25,108.25,0.0,0.0,33.81000000000002,33.80999999999998,33.81,33.81,33.81000000000002,1.6280579355608324e-14,2.3684757858670005e-15,16.81,13.85,15.350000000000001,15.370000000000001,13.85,1.1025651908163976,-0.9866666666666664
1 -> 2,0.04354400000000001,0.04354399999999999,0.043544000000000006,0.043544,0.04354399999999999,1.0971354589302191e-17,0.0,108.25,108.25,108.25,108.25,108.25,0.0,0.0,33.81000000000002,33.80999999999998,33.81,33.81,33.81000000000002,1.6280579355608324e-14,2.3684757858670005e-15,16.81,13.85,15.350000000000001,15.370000000000001,13.85,1.1025651908163976,-0.9866666666666664
1 -> 2,0.04354400000000001,0.04354399999999999,0.043544000000000006,0.043544,0.04354399999999999,1.0971354589302191e-17,0.0,108.25,108.25,108.25,108.25,108.25,0.0,0.0,33.81000000000002,33.80999999999998,33.81,33.81,33.81000000000002,1.6280579355608324e-14,2.3684757858670005e-15,12.7,7.26,10.2,10.42,7.26,2.035595735896497,-1.8133333333333332
1 -> 2,0.04354400000000001,0.04354399999999999,0.043544000000000006,0.043544,0.04354399999999999,1.0971354589302191e-17,0.0,108.25,108.25,108.25,108.25,108.25,0.0,0.0,33.81000000000002,33.80999999999998,33.81,33.81,33.81000000000002,1.6280579355608324e-14,2.3684757858670005e-15,12.7,7.26,10.2,10.42,7.26,2.035595735896497,-1.8133333333333332
1 -> 2,0.04226400000000002,0.04226399999999999,0.04226400000000001,0.04226400000000001,0.04226400000000002,1.1506853769672337e-17,6.938893903907228e-18,108.22,108.22,108.22,108.22,108.22,0.0,0.0,33.81000000000002,33.80999999999998,33.81,33.81,33.81000000000002,1.6280579355608324e-14,2.3684757858670005e-15,4.44,-5.9,-0.6699999999999999,-0.61,-5.9,3.864518081210127,-3.4466666666666668
1 -> 2,0.04226400000000002,0.04226399999999999,0.04226400000000001,0.04226400000000001,0.04226400000000002,1.1506853769672337e-17,6.938893903907228e-18,108.22,108.22,108.22,108.22,108.22,0.0,0.0,33.81000000000002,33.80999999999998,33.81,33.81,33.81000000000002,1.6280579355608324e-14,2.3684757858670005e-15,4.44,-5.9,-0.6699999999999999,-0.61,-5.9,3.864518081210127,-3.4466666666666668
1 -> 2,0.04226400000000002,0.04226399999999999,0.04226400000000001,0.04226400000000001,0.04226400000000002,1.1506853769672337e-17,6.938893903907228e-18,108.22,108.22,108.22,108.22,108.22,0.0,0.0,33.81000000000002,33.80999999999998,33.81,33.81,33.81000000000002,1.6280579355608324e-14,2.3684757858670005e-15,-9.15,-16.77,-13.085,-13.21,-16.77,2.8337475187461565,-2.5399999999999996
1 -> 2,0.04226400000000002,0.04226399999999999,0.04226400000000001,0.04226400000000001,0.04226400000000002,1.1506853769672337e-17,6.938893903907228e-18,108.22,108.22,108.22,108.22,108.22,0.0,0.0,33.81000000000002,33.80999999999998,33.81,33.81,33.81000000000002,1.6280579355608324e-14,2.3684757858670005e-15,-9.15,-16.77,-13.085,-13.21,-16.77,2.8337475187461565,-2.5399999999999996
1 -> 2,0.04226400000000002,0.04226399999999999,0.04226400000000001,0.04226400000000001,0.04226400000000002,1.1506853769672337e-17,6.938893903907228e-18,108.22,108.22,108.22,108.22,108.22,0.0,0.0,33.81000000000002,33.80999999999998,33.81,33.81,33.81000000000002,1.6280579355608324e-14,2.3684757858670005e-15,-19.29,-29.2,-24.085,-23.925,-29.2,3.706497673006149,-3.3033333333333332
1 -> 2,0.04226400000000002,0.04226399999999999,0.04226400000000001,0.04226400000000001,0.04226400000000002,1.1506853769672337e-17,6.938893903907228e-18,108.22,108.22,108.22,108.22,108.22,0.0,0.0,33.81000000000002,33.80999999999998,33.81,33.81,33.81000000000002,1.6280579355608324e-14,2.3684757858670005e-15,-19.29,-29.2,-24.085,-23.925,-29.2,3.706497673006149,-3.3033333333333332
1 -> 2,0.04226400000000002,0.04226399999999999,0.04226400000000001,0.04226400000000001,0.04226400000000002,1.1506853769672337e-17,6.938893903907228e-18,108.22,108.22,108.22,108.22,108.22,0.0,0.0,33.81000000000002,33.80999999999998,33.81,33.81,33.81000000000002,1.6280579355608324e-14,2.3684757858670005e-15,-32.46,-35.4,-34.1775,-34.425,-35.4,1.0886775234200428,-0.5566666666666672
1 -> 2,0.04226400000000002,0.04226399999999999,0.04226400000000001,0.04226400000000001,0.04226400000000002,1.1506853769672337e-17,6.938893903907228e-18,108.22,108.22,108.22,108.22,108.22,0.0,0.0,33.81000000000002,33.80999999999998,33.81,33.81,33.81000000000002,1.6280579355608324e-14,2.3684757858670005e-15,-32.46,-35.4,-34.1775,-34.425,-35.4,1.0886775234200428,-0.5566666666666672
1 -> 2,0.04354400000000001,0.04354399999999999,0.043544000000000006,0.043544,0.04354399999999999,1.0971354589302191e-17,0.0,108.22,108.22,108.22,108.22,108.22,0.0,0.0,33.81000000000002,33.80999999999998,33.81,33.81,33.81000000000002,1.6280579355608324e-14,2.3684757858670005e-15,-12.75,-30.86,-22.2675,-22.73,-30.86,6.788049701497478,6.036666666666666
1 -> 2,0.04354400000000001,0.04354399999999999,0.043544000000000006,0.043544,0.04354399999999999,1.0971354589302191e-17,0.0,108.22,108.22,108.22,108.22,108.22,0.0,0.0,33.81000000000002,33.80999999999998,33.81,33.81,33.81000000000002,1.6280579355608324e-14,2.3684757858670005e-15,-12.75,-30.86,-22.2675,-22.73,-30.86,6.788049701497478,6.036666666666666
1 -> 2,0.04354400000000001,0.04354399999999999,0.043544000000000006,0.043544,0.04354399999999999,1.0971354589302191e-17,0.0,108.22,108.22,108.22,108.22,108.22,0.0,0.0,33.81000000000002,33.80999999999998,33.81,33.81,33.81000000000002,1.6280579355608324e-14,2.3684757858670005e-15,10.8,-5.86,2.9250000000000003,3.3800000000000003,-5.86,6.23293871299887,5.553333333333334
1 -> 2,0.04354400000000001,0.04354399999999999,0.043544000000000006,0.043544,0.04354399999999999,1.0971354589302191e-17,0.0,108.22,108.22,108.22,108.22,108.22,0.0,0.0,33.81000000000002,33.80999999999998,33.81,33.81,33.81000000000002,1.6280579355608324e-14,2.3684757858670005e-15,10.8,-5.86,2.9250000000000003,3.3800000000000003,-5.86,6.23293871299887,5.553333333333334
1 -> 2,0.04354400000000001,0.04354399999999999,0.043544000000000006,0.043544,0.04354399999999999,1.0971354589302191e-17,0.0,108.22,108.22,108.22,108.22,108.22,0.0,0.0,33.81000000000002,33.80999999999998,33.81,33.81,33.81000000000002,1.6280579355608324e-14,2.3684757858670005e-15,18.75,14.31,16.994999999999997,17.46,14.31,1.7145334642403454,1.4799999999999998
1 -> 2,0.04354400000000001,0.04354399999999999,0.043544000000000006,0.043544,0.04354399999999999,1.0971354589302191e-17,0.0,108.22,108.22,108.22,108.22,108.22,0.0,0.0,33.81000000000002,33.80999999999998,33.81,33.81,33.81000000000002,1.6280579355608324e-14,2.3684757858670005e-15,18.75,14.31,16.994999999999997,17.46,14.31,1.7145334642403454,1.4799999999999998
1 -> 2,0.04354400000000001,0.04354399999999999,0.043544000000000006,0.043544,0.04354399999999999,1.0971354589302191e-17,0.0,108.22,108.22,108.22,108.22,108.22,0.0,0.0,33.81000000000002,33.80999999999998,33.81,33.81,33.81000000000002,1.6280579355608324e-14,2.3684757858670005e-15,18.61,15.94,17.3775,17.48,15.94,1.008374310462142,-0.89
1 -> 2,0.04354400000000001,0.04354399999999999,0.043544000000000006,0.043544,0.04354399999999999,1.0971354589302191e-17,0.0,108.22,108.22,108.22,108.22,108.22,0.0,0.0,33.81000000000002,33.80999999999998,33.81,33.81,33.81000000000002,1.6280579355608324e-14,2.3684757858670005e-15,18.61,15.94,17.3775,17.48,15.94,1.008374310462142,-0.89
1 -> 2,0.04226400000000002,0.04226399999999999,0.04226400000000001,0.04226400000000001,0.04226400000000002,1.1506853769672337e-17,6.938893903907228e-18,108.22,108.22,108.22,108.22,108.22,0.0,0.0,33.81000000000002,33.80999999999998,33.81,33.81,33.81000000000002,1.6280579355608324e-14,2.3684757858670005e-15,14.93,13.03,13.885000000000002,13.79,13.03,0.7129691437923523,-0.6333333333333334
1 -> 2,0.04226400000000002,0.04226399999999999,0.04226400000000001,0.04226400000000001,0.04226400000000002,1.1506853769672337e-17,6.938893903907228e-18,108.22,108.22,108.22,108.22,108.22,0.0,0.0,33.81000000000002,33.80999999999998,33.81,33.81,33.81000000000002,1.6280579355608324e-14,2.3684757858670005e-15,14.93,13.03,13.885000000000002,13.79,13.03,0.7129691437923523,-0.6333333333333334
1 -> 2,0.04226400000000002,0.04226399999999999,0.04226400000000001,0.04226400000000001,0.04226400000000002,1.1506853769672337e-17,6.938893903907228e-18,108.22,108.22,108.22,108.22,108.22,0.0,0.0,33.81000000000002,33.80999999999998,33.81,33.81,33.81000000000002,1.6280579355608324e-14,2.3684757858670005e-15,12.7,11.17,12.035,12.135,11.17,0.5746520686467592,-0.5099999999999998
1 -> 2,0.04226400000000002,0.04226399999999999,0.04226400000000001,0.04226400000000001,0.04226400000000002,1.1506853769672337e-17,6.938893903907228e-18,108.22,108.22,108.22,108.22,108.22,0.0,0.0,33.81000000000002,33.80999999999998,33.81,33.81,33.81000000000002,1.6280579355608324e-14,2.3684757858670005e-15,12.7,11.17,12.035,12.135,11.17,0.5746520686467592,-0.5099999999999998
1 -> 2,0.04226400000000002,0.04226399999999999,0.04226400000000001,0.04226400000000001,0.04226400000000002,1.1506853769672337e-17,6.938893903907228e-18,108.22,108.22,108.22,108.22,108.22,0.0,0.0,33.81000000000002,33.80999999999998,33.81,33.81,33.81000000000002,1.6280579355608324e-14,2.3684757858670005e-15,10.04,3.9,7.182499999999999,7.395,3.9,2.300699621854187,-2.0466666666666664
1 -> 2,0.04226400000000002,0.04226399999999999,0.04226400000000001,0.04226400000000001,0.04226400000000002,1.1506853769672337e-17,6.938893903907228e-18,108.22,108.22,108.22,108.22,108.22,0.0,0.0,33.81000000000002,33.80999999999998,33.81,33.81,33.81000000000002,1.6280579355608324e-14,2.3684757858670005e-15,10.04,3.9,7.182499999999999,7.395,3.9,2.300699621854187,-2.0466666666666664
1 -> 2,0.04226400000000002,0.04226399999999999,0.04226400000000001,0.04226400000000001,0.04226400000000002,1.1506853769672337e-17,6.938893903907228e-18,108.22,108.22,108.22,108.22,108.22,0.0,0.0,33.81000000000002,33.80999999999998,33.81,33.81,33.81000000000002,1.6280579355608324e-14,2.3684757858670005e-15,1.13,-8.33,-3.515,-3.4299999999999997,-8.33,3.527304211433995,-3.1533333333333338
1 -> 2,0.04226400000000002,0.04226399999999999,0.04226400000000001,0.04226400000000001,0.04226400000000002,1.1506853769672337e-17,6.938893903907228e-18,108.22,108.22,108.22,108.22,108.22,0.0,0.0,33.81000000000002,33.80999999999998,33.81,33.81,33.81000000000002,1.6280579355608324e-14,2.3684757858670005e-15,1.13,-8.33,-3.515,-3.4299999999999997,-8.33,3.527304211433995,-3.1533333333333338
1 -> 2,0.04226400000000002,0.04226399999999999,0.04226400000000001,0.04226400000000001,0.04226400000000002,1.1506853769672337e-17,6.938893903907228e-18,108.22,108.22,108.22,108.22,108.22,0.0,0.0,33.81000000000002,33.80999999999998,33.81,33.81,33.81000000000002,1.6280579355608324e-14,2.3684757858670005e-15,-11.79,-22.36,-17.0825,-17.09,-22.36,3.9410809113744416,-3.5233333333333334
1 -> 2,0.04226400000000002,0.04226399999999999,0.04226400000000001,0.04226400000000001,0.04226400000000002,1.1506853769672337e-17,6.938893903907228e-18,108.22,108.22,108.22,108.22,108.22,0.0,0.0,33.81000000000002,33.80999999999998,33.81,33.81,33.81000000000002,1.6280579355608324e-14,2.3684757858670005e-15,-11.79,-22.36,-17.0825,-17.09,-22.36,3.9410809113744416,-3.5233333333333334
1 -> 2,0.04226400000000002,0.04226399999999999,0.04226400000000001,0.04226400000000001,0.04226400000000002,1.1506853769672337e-17,6.938893903907228e-18,108.22,108.22,108.22,108.22,108.22,0.0,0.0,33.81000000000002,33.80999999999998,33.81,33.81,33.81000000000002,1.6280579355608324e-14,2.3684757858670005e-15,-25.86,-37.22,-31.4625,-31.384999999999998,-37.22,4.236946866553792,-3.7866666666666666
1 -> 2,0.04226400000000002,0.04226399999999999,0.04226400000000001,0.04226400000000001,0.04226400000000002,1.1506853769672337e-17,6.938893903907228e-18,108.22,108.22,108.22,108.22,108.22,0.0,0.0,33.81000000000002,33.80999999999998,33.81,33.81,33.81000000000002,1.6280579355608324e-14,2.3684757858670005e-15,-25.86,-37.22,-31.4625,-31.384999999999998,-37.22,4.236946866553792,-3.7866666666666666
1 -> 2,0.04226400000000002,0.04226399999999999,0.04226400000000001,0.04226400000000001,0.04226400000000002,1.1506853769672337e-17,6.938893903907228e-18,108.22,108.22,108.22,108.22,108.22,0.0,0.0,33.81000000000002,33.80999999999998,33.81,33.81,33.81000000000002,1.6280579355608324e-14,2.3684757858670005e-15,-40.97,-45.8,-44.1425,-44.900000000000006,-45.8,1.9690400579978051,-1.6099999999999994
1 -> 2,0.04226400000000002,0.04226399999999999,0.04226400000000001,0.04226400000000001,0.04226400000000002,1.1506853769672337e-17,6.938893903907228e-18,108.22,108.22,108.22,108.22,108.22,0.0,0.0,33.81000000000002,33.80999999999998,33.81,33.81,33.81000000000002,1.6280579355608324e-14,2.3684757858670005e-15,-40.97,-45.8,-44.1425,-44.900000000000006,-45.8,1.9690400579978051,-1.6099999999999994
1 -> 2,0.04226400000000002,0.04226399999999999,0.04226400000000001,0.04226400000000001,0.04226400000000002,1.1506853769672337e-17,6.938893903907228e-18,108.22,108.22,108.22,108.22,108.22,0.0,0.0,33.81000000000002,33.80999999999998,33.81,33.81,33.81000000000002,1.6280579355608324e-14,2.3684757858670005e-15,-29.39,-43.91,-37.2025,-37.754999999999995,-43.91,5.458623338351895,4.839999999999999
1 -> 2,0.04226400000000002,0.04226399999999999,0.04226400000000001,0.04226400000000001,0.04226400000000002,1.1506853769672337e-17,6.938893903907228e-18,108.22,108.22,108.22,108.22,108.22,0.0,0.0,33.81000000000002,33.80999999999998,33.81,33.81,33.81000000000002,1.6280579355608324e-14,2.3684757858670005e-15,-29.39,-43.91,-37.2025,-37.754999999999995,-43.91,5.458623338351895,4.839999999999999
1 -> 2,0.04354400000000001,0.04354399999999999,0.043544000000000006,0.043544,0.04354399999999999,1.0971354589302191e-17,0.0,108.5,108.5,108.5,108.5,108.5,0.0,0.0,33.79000000000001,33.78999999999999,33.790000000000006,33.790000000000006,33.79000000000001,8.702335715267317e-15,4.736951571734001e-15,-4.76,-23.14,-13.84,-13.73,-23.14,6.856690163628513,6.126666666666668
1 -> 2,0.04354400000000001,0.04354399999999999,0.043544000000000006,0.043544,0.04354399999999999,1.0971354589302191e-17,0.0,108.5,108.5,108.5,108.5,108.5,0.0,0.0,33.79000000000001,33.78999999999999,33.790000000000006,33.790000000000006,33.79000000000001,8.702335715267317e-15,4.736951571734001e-15,-4.76,-23.14,-13.84,-13.73,-23.14,6.856690163628513,6.126666666666668
1 -> 2,0.04354400000000001,0.04354399999999999,0.043544000000000006,0.043544,0.04354399999999999,1.0971354589302191e-17,0.0,108.5,108.5,108.5,108.5,108.5,0.0,0.0,33.79000000000001,33.78999999999999,33.790000000000006,33.790000000000006,33.79000000000001,8.702335715267317e-15,4.736951571734001e-15,13.11,0.67,7.2275,7.565,0.67,4.646527601338445,4.1466666666666665
1 -> 2,0.04354400000000001,0.04354399999999999,0.043544000000000006,0.043544,0.04354399999999999,1.0971354589302191e-17,0.0,108.5,108.5,108.5,108.5,108.5,0.0,0.0,33.79000000000001,33.78999999999999,33.790000000000006,33.790000000000006,33.79000000000001,8.702335715267317e-15,4.736951571734001e-15,13.11,0.67,7.2275,7.565,0.67,4.646527601338445,4.1466666666666665
1 -> 2,0.04354400000000001,0.04354399999999999,0.043544000000000006,0.043544,0.04354399999999999,1.0971354589302191e-17,0.0,108.5,108.5,108.5,108.5,108.5,0.0,0.0,33.79000000000001,33.78999999999999,33.790000000000006,33.790000000000006,33.79000000000001,8.702335715267317e-15,4.736951571734001e-15,24.74,16.08,20.322499999999998,20.235,16.08,3.220111605208739,2.8866666666666667
1 -> 2,0.04354400000000001,0.04354399999999999,0.043544000000000006,0.043544,0.04354399999999999,1.0971354589302191e-17,0.0,108.5,108.5,108.5,108.5,108.5,0.0,0.0,33.79000000000001,33.78999999999999,33.790000000000006,33.790000000000006,33.79000000000001,8.702335715267317e-15,4.736951571734001e-15,24.74,16.08,20.322499999999998,20.235,16.08,3.220111605208739,2.8866666666666667
1 -> 2,0.04354400000000001,0.04354399999999999,0.043544000000000006,0.043544,0.04354399999999999,1.0971354589302191e-17,0.0,108.5,108.5,108.5,108.5,108.5,0.0,0.0,33.79000000000001,33.78999999999999,33.790000000000006,33.790000000000006,33.79000000000001,8.702335715267317e-15,4.736951571734001e-15,40.02,28.22,34.0775,34.035,28.22,4.406451945726858,3.933333333333335
1 -> 2,0.04354400000000001,0.04354399999999999,0.043544000000000006,0.043544,0.04354399999999999,1.0971354589302191e-17,0.0,108.5,108.5,108.5,108.5,108.5,0.0,0.0,33.79000000000001,33.78999999999999,33.790000000000006,33.790000000000006,33.79000000000001,8.702335715267317e-15,4.736951571734001e-15,40.02,28.22,34.0775,34.035,28.22,4.406451945726858,3.933333333333335
1 -> 2,0.04226400000000002,0.04226399999999999,0.04226400000000001,0.04226400000000001,0.04226400000000002,1.1506853769672337e-17,6.938893903907228e-18,108.5,108.5,108.5,108.5,108.5,0.0,0.0,33.79000000000001,33.78999999999999,33.790000000000006,33.790000000000006,33.79000000000001,8.702335715267317e-15,4.736951571734001e-15,50.17,43.7,47.39750000000001,47.86,43.7,2.459983485716926,2.1566666666666663
1 -> 2,0.04226400000000002,0.04226399999999999,0.04226400000000001,0.04226400000000001,0.04226400000000002,1.1506853769672337e-17,6.938893903907228e-18,108.5,108.5,108.5,108.5,108.5,0.0,0.0,33.79000000000001,33.78999999999999,33.790000000000006,33.790000000000006,33.79000000000001,8.702335715267317e-15,4.736951571734001e-15,50.17,43.7,47.39750000000001,47.86,43.7,2.459983485716926,2.1566666666666663
1 -> 2,0.04226400000000002,0.04226399999999999,0.04226400000000001,0.04226400000000001,0.04226400000000002,1.1506853769672337e-17,6.938893903907228e-18,108.5,108.5,108.5,108.5,108.5,0.0,0.0,33.79000000000001,33.78999999999999,33.790000000000006,33.790000000000006,33.79000000000001,8.702335715267317e-15,4.736951571734001e-15,50.42,47.49,49.175000000000004,49.394999999999996,47.49,1.119877225413571,-0.9766666666666666
1 -> 2,0.04226400000000002,0.04226399999999999,0.04226400000000001,0.04226400000000001,0.04226400000000002,1.1506853769672337e-17,6.938893903907228e-18,108.5,108.5,108.5,108.5,108.5,0.0,0.0,33.79000000000001,33.78999999999999,33.790000000000006,33.790000000000006,33.79000000000001,8.702335715267317e-15,4.736951571734001e-15,50.42,47.49,49.175000000000004,49.394999999999996,47.49,1.119877225413571,-0.9766666666666666
1 -> 2,0.04226400000000002,0.04226399999999999,0.04226400000000001,0.04226400000000001,0.04226400000000002,1.1506853769672337e-17,6.938893903907228e-18,108.5,108.5,108.5,108.5,108.5,0.0,0.0,33.79000000000001,33.78999999999999,33.790000000000006,33.790000000000006,33.79000000000001,8.702335715267317e-15,4.736951571734001e-15,45.74,35.57,41.2025,41.75,35.57,3.8174819907892172,-3.3900000000000006
1 -> 2,0.04226400000000002,0.04226399999999999,0.04226400000000001,0.04226400000000001,0.04226400000000002,1.1506853769672337e-17,6.938893903907228e-18,108.5,108.5,108.5,108.5,108.5,0.0,0.0,33.79000000000001,33.78999999999999,33.790000000000006,33.790000000000006,33.79000000000001,8.702335715267317e-15,4.736951571734001e-15,45.74,35.57,41.2025,41.75,35.57,3.8174819907892172,-3.3900000000000006
1 -> 2,0.04226400000000002,0.04226399999999999,0.04226400000000001,0.04226400000000001,0.04226400000000002,1.1506853769672337e-17,6.938893903907228e-18,108.5,108.5,108.5,108.5,108.5,0.0,0.0,33.79000000000001,33.78999999999999,33.790000000000006,33.790000000000006,33.79000000000001,8.702335715267317e-15,4.736951571734001e-15,29.63,5.38,17.875,18.245,5.38,9.06380300977465,-8.083333333333334
1 -> 2,0.04226400000000002,0.04226399999999999,0.04226400000000001,0.04226400000000001,0.04226400000000002,1.1506853769672337e-17,6.938893903907228e-18,108.5,108.5,108.5,108.5,108.5,0.0,0.0,33.79000000000001,33.78999999999999,33.790000000000006,33.790000000000006,33.79000000000001,8.702335715267317e-15,4.736951571734001e-15,29.63,5.38,17.875,18.245,5.38,9.06380300977465,-8.083333333333334
1 -> 2,0.04226400000000002,0.04226399999999999,0.04226400000000001,0.04226400000000001,0.04226400000000002,1.1506853769672337e-17,6.938893903907228e-18,108.5,108.5,108.5,108.5,108.5,0.0,0.0,33.79000000000001,33.78999999999999,33.790000000000006,33.790000000000006,33.79000000000001,8.702335715267317e-15,4.736951571734001e-15,-3.27,-23.05,-13.8675,-14.575,-23.05,7.418532115587288,-6.593333333333334
1 -> 2,0.04226400000000002,0.04226399999999999,0.04226400000000001,0.04226400000000001,0.04226400000000002,1.1506853769672337e-17,6.938893903907228e-18,108.5,108.5,108.5,108.5,108.5,0.0,0.0,33.79000000000001,33.78999999999999,33.790000000000006,33.790000000000006,33.79000000000001,8.702335715267317e-15,4.736951571734001e-15,-3.27,-23.05,-13.8675,-14.575,-23.05,7.418532115587288,-6.593333333333334
1 -> 2,0.04226400000000002,0.04226399999999999,0.04226400000000001,0.04226400000000001,0.04226400000000002,1.1506853769672337e-17,6.938893903907228e-18,108.5,108.5,108.5,108.5,108.5,0.0,0.0,33.79000000000001,33.78999999999999,33.790000000000006,33.790000000000006,33.79000000000001,8.702335715267317e-15,4.736951571734001e-15,-26.39,-28.15,-27.4275,-27.585,-28.15,0.705775282933597,-0.2600000000000004
1 -> 2,0.04226400000000002,0.04226399999999999,0.04226400000000001,0.04226400000000001,0.04226400000000002,1.1506853769672337e-17,6.938893903907228e-18,108.5,108.5,108.5,108.5,108.5,0.0,0.0,33.79000000000001,33.78999999999999,33.790000000000006,33.790000000000006,33.79000000000001,8.702335715267317e-15,4.736951571734001e-15,-26.39,-28.15,-27.4275,-27.585,-28.15,0.705775282933597,-0.2600000000000004
1 -> 2,0.04226400000000002,0.04226399999999999,0.04226400000000001,0.04226400000000001,0.04226400000000002,1.1506853769672337e-17,6.938893903907228e-18,108.5,108.5,108.5,108.5,108.5,0.0,0.0,33.79000000000001,33.78999999999999,33.790000000000006,33.790000000000006,33.79000000000001,8.702335715267317e-15,4.736951571734001e-15,-19.02,-25.47,-22.2525,-22.259999999999998,-25.47,2.4117252642040303,2.15
1 -> 2,0.04226400000000002,0.04226399999999999,0.04226400000000001,0.04226400000000001,0.04226400000000002,1.1506853769672337e-17,6.938893903907228e-18,108.5,108.5,108.5,108.5,108.5,0.0,0.0,33.79000000000001,33.78999999999999,33.790000000000006,33.790000000000006,33.79000000000001,8.702335715267317e-15,4.736951571734001e-15,-19.02,-25.47,-22.2525,-22.259999999999998,-25.47,2.4117252642040303,2.15
1 -> 2,0.04226400000000002,0.04226399999999999,0.04226400000000001,0.04226400000000001,0.04226400000000002,1.1506853769672337e-17,6.938893903907228e-18,108.5,108.5,108.5,108.5,108.5,0.0,0.0,33.79000000000001,33.78999999999999,33.790000000000006,33.790000000000006,33.79000000000001,8.702335715267317e-15,4.736951571734001e-15,-14.1,-17.15,-15.387500000000001,-15.15,-17.15,1.1615802813408977,1.0166666666666664
1 -> 2,0.04226400000000002,0.04226399999999999,0.04226400000000001,0.04226400000000001,0.04226400000000002,1.1506853769672337e-17,6.938893903907228e-18,108.5,108.5,108.5,108.5,108.5,0.0,0.0,33.79000000000001,33.78999999999999,33.790000000000006,33.790000000000006,33.79000000000001,8.702335715267317e-15,4.736951571734001e-15,-14.1,-17.15,-15.387500000000001,-15.15,-17.15,1.1615802813408977,1.0166666666666664
1 -> 2,0.04226400000000002,0.04226399999999999,0.04226400000000001,0.04226400000000001,0.04226400000000002,1.1506853769672337e-17,6.938893903907228e-18,108.5,108.5,108.5,108.5,108.5,0.0,0.0,33.79000000000001,33.78999999999999,33.790000000000006,33.790000000000006,33.79000000000001,8.702335715267317e-15,4.736951571734001e-15,-13.83,-14.07,-13.9725,-13.995000000000001,-14.07,0.09120718173477342,0.04333333333333359
1 -> 2,0.04226400000000002,0.04226399999999999,0.04226400000000001,0.04226400000000001,0.04226400000000002,1.1506853769672337e-17,6.938893903907228e-18,108.5,108.5,108.5,108.5,108.5,0.0,0.0,33.79000000000001,33.78999999999999,33.790000000000006,33.790000000000006,33.79000000000001,8.702335715267317e-15,4.736951571734001e-15,-13.83,-14.07,-13.9725,-13.995000000000001,-14.07,0.09120718173477342,0.04333333333333359
1 -> 2,0.04226400000000002,0.04226399999999999,0.04226400000000001,0.04226400000000001,0.04226400000000002,1.1506853769672337e-17,6.938893903907228e-18,108.5,108.5,108.5,108.5,108.5,0.0,0.0,33.79000000000001,33.78999999999999,33.790000000000006,33.790000000000006,33.79000000000001,8.702335715267317e-15,4.736951571734001e-15,-8.58,-13.12,-10.9825,-11.115,-13.12,1.7058777066366742,1.513333333333333
1 -> 2,0.04226400000000002,0.04226399999999999,0.04226400000000001,0.04226400000000001,0.04226400000000002,1.1506853769672337e-17,6.938893903907228e-18,108.5,108.5,108.5,108.5,108.5,0.0,0.0,33.79000000000001,33.78999999999999,33.790000000000006,33.790000000000006,33.79000000000001,8.702335715267317e-15,4.736951571734001e-15,-8.58,-13.12,-10.9825,-11.115,-13.12,1.7058777066366742,1.513333333333333
1 -> 2,0.04226400000000002,0.04226399999999999,0.04226400000000001,0.04226400000000001,0.04226400000000002,1.1506853769672337e-17,6.938893903907228e-18,108.5,108.5,108.5,108.5,108.5,0.0,0.0,33.79000000000001,33.78999999999999,33.790000000000006,33.790000000000006,33.79000000000001,8.702335715267317e-15,4.736951571734001e-15,-4.69,-6.97,-5.597500000000001,-5.365,-6.97,0.8798685981440636,0.7599999999999998
1 -> 2,0.04226400000000002,0.04226399999999999,0.04226400000000001,0.04226400000000001,0.04226400000000002,1.1506853769672337e-17,6.938893903907228e-18,108.5,108.5,108.5,108.5,108.5,0.0,0.0,33.79000000000001,33.78999999999999,33.790000000000006,33.790000000000006,33.79000000000001,8.702335715267317e-15,4.736951571734001e-15,-4.69,-6.97,-5.597500000000001,-5.365,-6.97,0.8798685981440636,0.7599999999999998
1 -> 2,0.04226400000000002,0.04226399999999999,0.04226400000000001,0.04226400000000001,0.04226400000000002,1.1506853769672337e-17,6.938893903907228e-18,108.5,108.5,108.5,108.5,108.5,0.0,0.0,33.79000000000001,33.78999999999999,33.790000000000006,33.790000000000006,33.79000000000001,8.702335715267317e-15,4.736951571734001e-15,-4.75,-6.42,-5.4625,-5.34,-6.42,0.6325098813457384,-0.5566666666666666
1 -> 2,0.04226400000000002,0.04226399999999999,0.04226400000000001,0.04226400000000001,0.04226400000000002,1.1506853769672337e-17,6.938893903907228e-18,108.5,108.5,108.5,108.5,108.5,0.0,0.0,33.79000000000001,33.78999999999999,33.790000000000006,33.790000000000006,33.79000000000001,8.702335715267317e-15,4.736951571734001e-15,-4.75,-6.42,-5.4625,-5.34,-6.42,0.6325098813457384,-0.5566666666666666
