PHASE,EDA_MAX,EDA_MIN,EDA_MEAN,EDA_MEDIAN,EDA_MODE,EDA_SD,HR_MAX,HR_MIN,HR_MEAN,HR_MEDIAN,HR_MODE,HR_SD,SKT_MAX,SKT_MIN,SKT_MEAN,SKT_MEDIAN,SKT_MODE,SKT_SD,BVP_MAX,BVP_MIN,BVP_MEAN,BVP_MEDIAN,BVP_MODE,BVP_SD
1 -> 2,1.962216000000001,1.9622160000000002,1.9622160000000006,1.9622160000000008,1.9622160000000008,3.510833468576701e-16,59.0,59.0,59.0,59.0,59.0,0.0,35.030000000000015,35.029999999999994,35.03000000000001,35.03000000000001,35.030000000000015,9.39959687352353e-15,1.57,1.19,1.355,1.33,1.19,0.14534441853748636
1 -> 2,1.962216000000001,1.9622160000000002,1.9622160000000006,1.9622160000000008,1.9622160000000008,3.510833468576701e-16,59.0,59.0,59.0,59.0,59.0,0.0,35.030000000000015,35.029999999999994,35.03000000000001,35.03000000000001,35.030000000000015,9.39959687352353e-15,1.57,1.19,1.355,1.33,1.19,0.14534441853748636
1 -> 2,1.962216000000001,1.9622160000000002,1.9622160000000006,1.9622160000000008,1.9622160000000008,3.510833468576701e-16,59.0,59.0,59.0,59.0,59.0,0.0,35.030000000000015,35.029999999999994,35.03000000000001,35.03000000000001,35.030000000000015,9.39959687352353e-15,1.18,0.59,0.9624999999999999,1.04,0.59,0.23144923849518279
1 -> 2,1.962216000000001,1.9622160000000002,1.9622160000000006,1.9622160000000008,1.9622160000000008,3.510833468576701e-16,59.0,59.0,59.0,59.0,59.0,0.0,35.030000000000015,35.029999999999994,35.03000000000001,35.03000000000001,35.030000000000015,9.39959687352353e-15,1.18,0.59,0.9624999999999999,1.04,0.59,0.23144923849518279
1 -> 2,1.962216000000001,1.9622160000000002,1.9622160000000006,1.9622160000000008,1.9622160000000008,3.510833468576701e-16,59.0,59.0,59.0,59.0,59.0,0.0,35.030000000000015,35.029999999999994,35.03000000000001,35.03000000000001,35.030000000000015,9.39959687352353e-15,0.08,-1.65,-0.7875,-0.79,-1.65,0.6451114244841739
1 -> 2,1.962216000000001,1.9622160000000002,1.9622160000000006,1.9622160000000008,1.9622160000000008,3.510833468576701e-16,59.0,59.0,59.0,59.0,59.0,0.0,35.030000000000015,35.029999999999994,35.03000000000001,35.03000000000001,35.030000000000015,9.39959687352353e-15,0.08,-1.65,-0.7875,-0.79,-1.65,0.6451114244841739
1 -> 2,1.962216000000001,1.9622160000000002,1.9622160000000006,1.9622160000000008,1.9622160000000008,3.510833468576701e-16,59.0,59.0,59.0,59.0,59.0,0.0,35.030000000000015,35.029999999999994,35.03000000000001,35.03000000000001,35.030000000000015,9.39959687352353e-15,-2.26,-4.7,-3.4350000000000005,-3.39,-4.7,0.9134686639398202
1 -> 2,1.962216000000001,1.9622160000000002,1.9622160000000006,1.9622160000000008,1.9622160000000008,3.510833468576701e-16,59.0,59.0,59.0,59.0,59.0,0.0,35.030000000000015,35.029999999999994,35.03000000000001,35.03000000000001,35.030000000000015,9.39959687352353e-15,-2.26,-4.7,-3.4350000000000005,-3.39,-4.7,0.9134686639398202
1 -> 2,1.9532530000000008,1.9532529999999986,1.953253,1.953253,1.9532530000000008,1.0175362097255202e-15,59.0,59.0,59.0,59.0,59.0,0.0,35.030000000000015,35.029999999999994,35.03000000000001,35.03000000000001,35.030000000000015,9.39959687352353e-15,-5.4,-5.91,-5.665000000000001,-5.675,-5.91,0.2360614326822574
1 -> 2,1.9532530000000008,1.9532529999999986,1.953253,1.953253,1.9532530000000008,1.0175362097255202e-15,59.0,59.0,59.0,59.0,59.0,0.0,35.030000000000015,35.029999999999994,35.03000000000001,35.03000000000001,35.030000000000015,9.39959687352353e-15,-5.4,-5.91,-5.665000000000001,-5.675,-5.91,0.2360614326822574
1 -> 2,1.9532530000000008,1.9532529999999986,1.953253,1.953253,1.9532530000000008,1.0175362097255202e-15,59.0,59.0,59.0,59.0,59.0,0.0,35.030000000000015,35.029999999999994,35.03000000000001,35.03000000000001,35.030000000000015,9.39959687352353e-15,-1.46,-4.52,-2.96,-2.9299999999999997,-4.52,1.1453383779477573
1 -> 2,1.9532530000000008,1.9532529999999986,1.953253,1.953253,1.9532530000000008,1.0175362097255202e-15,59.0,59.0,59.0,59.0,59.0,0.0,35.030000000000015,35.029999999999994,35.03000000000001,35.03000000000001,35.030000000000015,9.39959687352353e-15,-1.46,-4.52,-2.96,-2.9299999999999997,-4.52,1.1453383779477573
1 -> 2,1.9532530000000008,1.9532529999999986,1.953253,1.953253,1.9532530000000008,1.0175362097255202e-15,59.0,59.0,59.0,59.0,59.0,0.0,35.030000000000015,35.029999999999994,35.03000000000001,35.03000000000001,35.030000000000015,9.39959687352353e-15,1.56,-0.65,0.4575,0.45999999999999996,-0.65,0.8239956007164115
1 -> 2,1.9532530000000008,1.9532529999999986,1.953253,1.953253,1.9532530000000008,1.0175362097255202e-15,59.0,59.0,59.0,59.0,59.0,0.0,35.030000000000015,35.029999999999994,35.03000000000001,35.03000000000001,35.030000000000015,9.39959687352353e-15,1.56,-0.65,0.4575,0.45999999999999996,-0.65,0.8239956007164115
1 -> 2,1.9532530000000008,1.9532529999999986,1.953253,1.953253,1.9532530000000008,1.0175362097255202e-15,59.0,59.0,59.0,59.0,59.0,0.0,35.030000000000015,35.029999999999994,35.03000000000001,35.03000000000001,35.030000000000015,9.39959687352353e-15,3.16,2.23,2.795,2.895,2.23,0.3607284297085551
1 -> 2,1.9532530000000008,1.9532529999999986,1.953253,1.953253,1.9532530000000008,1.0175362097255202e-15,59.0,59.0,59.0,59.0,59.0,0.0,35.030000000000015,35.029999999999994,35.03000000000001,35.03000000000001,35.030000000000015,9.39959687352353e-15,3.16,2.23,2.795,2.895,2.23,0.3607284297085551
1 -> 2,1.9430100000000008,1.943009999999999,1.94301,1.9430100000000001,1.9430100000000008,8.005932084973442e-16,59.0,59.0,59.0,59.0,59.0,0.0,35.030000000000015,35.029999999999994,35.03000000000001,35.03000000000001,35.030000000000015,9.39959687352353e-15,3.15,3.09,3.1199999999999997,3.12,3.09,0.022360679774997918
1 -> 2,1.9430100000000008,1.943009999999999,1.94301,1.9430100000000001,1.9430100000000008,8.005932084973442e-16,59.0,59.0,59.0,59.0,59.0,0.0,35.030000000000015,35.029999999999994,35.03000000000001,35.03000000000001,35.030000000000015,9.39959687352353e-15,3.15,3.09,3.1199999999999997,3.12,3.09,0.022360679774997918
1 -> 2,1.9430100000000008,1.943009999999999,1.94301,1.9430100000000001,1.9430100000000008,8.005932084973442e-16,59.0,59.0,59.0,59.0,59.0,0.0,35.030000000000015,35.029999999999994,35.03000000000001,35.03000000000001,35.030000000000015,9.39959687352353e-15,3.03,2.81,2.9,2.88,2.81,0.08306623862918065
1 -> 2,1.9430100000000008,1.943009999999999,1.94301,1.9430100000000001,1.9430100000000008,8.005932084973442e-16,59.0,59.0,59.0,59.0,59.0,0.0,35.030000000000015,35.029999999999994,35.03000000000001,35.03000000000001,35.030000000000015,9.39959687352353e-15,3.03,2.81,2.9,2.88,2.81,0.08306623862918065
1 -> 2,1.9430100000000008,1.943009999999999,1.94301,1.9430100000000001,1.9430100000000008,8.005932084973442e-16,59.0,59.0,59.0,59.0,59.0,0.0,35.030000000000015,35.029999999999994,35.03000000000001,35.03000000000001,35.030000000000015,9.39959687352353e-15,4.22,3.11,3.7225,3.78,3.11,0.4286825748732971
1 -> 2,1.9430100000000008,1.943009999999999,1.94301,1.9430100000000001,1.9430100000000008,8.005932084973442e-16,59.0,59.0,59.0,59.0,59.0,0.0,35.030000000000015,35.029999999999994,35.03000000000001,35.03000000000001,35.030000000000015,9.39959687352353e-15,4.22,3.11,3.7225,3.78,3.11,0.4286825748732971
1 -> 2,1.9430100000000008,1.943009999999999,1.94301,1.9430100000000001,1.9430100000000008,8.005932084973442e-16,59.0,59.0,59.0,59.0,59.0,0.0,35.030000000000015,35.029999999999994,35.03000000000001,35.03000000000001,35.030000000000015,9.39959687352353e-15,3.99,1.04,2.6224999999999996,2.73,1.04,1.115871296342011
1 -> 2,1.9430100000000008,1.943009999999999,1.94301,1.9430100000000001,1.9430100000000008,8.005932084973442e-16,59.0,59.0,59.0,59.0,59.0,0.0,35.030000000000015,35.029999999999994,35.03000000000001,35.03000000000001,35.030000000000015,9.39959687352353e-15,3.99,1.04,2.6224999999999996,2.73,1.04,1.115871296342011
1 -> 2,1.927645000000001,1.9276449999999994,1.9276450000000005,1.9276450000000007,1.927645000000001,6.377745716588144e-16,59.0,59.0,59.0,59.0,59.0,0.0,35.030000000000015,35.029999999999994,35.03000000000001,35.03000000000001,35.030000000000015,9.39959687352353e-15,0.03,-1.74,-0.925,-0.995,-1.74,0.659033383069477
1 -> 2,1.927645000000001,1.9276449999999994,1.9276450000000005,1.9276450000000007,1.927645000000001,6.377745716588144e-16,59.0,59.0,59.0,59.0,59.0,0.0,35.030000000000015,35.029999999999994,35.03000000000001,35.03000000000001,35.030000000000015,9.39959687352353e-15,0.03,-1.74,-0.925,-0.995,-1.74,0.659033383069477
1 -> 2,1.927645000000001,1.9276449999999994,1.9276450000000005,1.9276450000000007,1.927645000000001,6.377745716588144e-16,59.0,59.0,59.0,59.0,59.0,0.0,35.030000000000015,35.029999999999994,35.03000000000001,35.03000000000001,35.030000000000015,9.39959687352353e-15,-2.24,-4.13,-3.1675000000000004,-3.1500000000000004,-4.13,0.7057044352985178
1 -> 2,1.927645000000001,1.9276449999999994,1.9276450000000005,1.9276450000000007,1.927645000000001,6.377745716588144e-16,59.0,59.0,59.0,59.0,59.0,0.0,35.030000000000015,35.029999999999994,35.03000000000001,35.03000000000001,35.030000000000015,9.39959687352353e-15,-2.24,-4.13,-3.1675000000000004,-3.1500000000000004,-4.13,0.7057044352985178
1 -> 2,1.927645000000001,1.9276449999999994,1.9276450000000005,1.9276450000000007,1.927645000000001,6.377745716588144e-16,59.0,59.0,59.0,59.0,59.0,0.0,35.030000000000015,35.029999999999994,35.03000000000001,35.03000000000001,35.030000000000015,9.39959687352353e-15,-4.8,-6.5,-5.715,-5.779999999999999,-6.5,0.643059095262636
1 -> 2,1.927645000000001,1.9276449999999994,1.9276450000000005,1.9276450000000007,1.927645000000001,6.377745716588144e-16,59.0,59.0,59.0,59.0,59.0,0.0,35.030000000000015,35.029999999999994,35.03000000000001,35.03000000000001,35.030000000000015,9.39959687352353e-15,-4.8,-6.5,-5.715,-5.779999999999999,-6.5,0.643059095262636
1 -> 2,1.927645000000001,1.9276449999999994,1.9276450000000005,1.9276450000000007,1.927645000000001,6.377745716588144e-16,59.0,59.0,59.0,59.0,59.0,0.0,35.030000000000015,35.029999999999994,35.03000000000001,35.03000000000001,35.030000000000015,9.39959687352353e-15,-3.26,-6.52,-5.1525,-5.415,-6.52,1.2477855384640424
1 -> 2,1.927645000000001,1.9276449999999994,1.9276450000000005,1.9276450000000007,1.927645000000001,6.377745716588144e-16,59.0,59.0,59.0,59.0,59.0,0.0,35.030000000000015,35.029999999999994,35.03000000000001,35.03000000000001,35.030000000000015,9.39959687352353e-15,-3.26,-6.52,-5.1525,-5.415,-6.52,1.2477855384640424
1 -> 2,1.9186820000000009,1.918681999999999,1.918682,1.9186820000000002,1.9186820000000009,8.005932084973442e-16,58.5,58.5,58.5,58.5,58.5,0.0,35.030000000000015,35.029999999999994,35.03000000000001,35.03000000000001,35.030000000000015,9.39959687352353e-15,2.21,-1.49,0.565,0.77,-1.49,1.3970415169206676
1 -> 2,1.9186820000000009,1.918681999999999,1.918682,1.9186820000000002,1.9186820000000009,8.005932084973442e-16,58.5,58.5,58.5,58.5,58.5,0.0,35.030000000000015,35.029999999999994,35.03000000000001,35.03000000000001,35.030000000000015,9.39959687352353e-15,2.21,-1.49,0.565,0.77,-1.49,1.3970415169206676
1 -> 2,1.9186820000000009,1.918681999999999,1.918682,1.9186820000000002,1.9186820000000009,8.005932084973442e-16,58.5,58.5,58.5,58.5,58.5,0.0,35.030000000000015,35.029999999999994,35.03000000000001,35.03000000000001,35.030000000000015,9.39959687352353e-15,2.91,2.62,2.79,2.815,2.62,0.10839741694339401
1 -> 2,1.9186820000000009,1.918681999999999,1.918682,1.9186820000000002,1.9186820000000009,8.005932084973442e-16,58.5,58.5,58.5,58.5,58.5,0.0,35.030000000000015,35.029999999999994,35.03000000000001,35.03000000000001,35.030000000000015,9.39959687352353e-15,2.91,2.62,2.79,2.815,2.62,0.10839741694339401
1 -> 2,1.9186820000000009,1.918681999999999,1.918682,1.9186820000000002,1.9186820000000009,8.005932084973442e-16,58.5,58.5,58.5,58.5,58.5,0.0,35.030000000000015,35.029999999999994,35.03000000000001,35.03000000000001,35.030000000000015,9.39959687352353e-15,3.05,2.96,3.01,3.015,2.96,0.036742346141747616
1 -> 2,1.9186820000000009,1.918681999999999,1.918682,1.9186820000000002,1.9186820000000009,8.005932084973442e-16,58.5,58.5,58.5,58.5,58.5,0.0,35.030000000000015,35.029999999999994,35.03000000000001,35.03000000000001,35.030000000000015,9.39959687352353e-15,3.05,2.96,3.01,3.015,2.96,0.036742346141747616
1 -> 2,1.9186820000000009,1.918681999999999,1.918682,1.9186820000000002,1.9186820000000009,8.005932084973442e-16,58.5,58.5,58.5,58.5,58.5,0.0,35.030000000000015,35.029999999999994,35.03000000000001,35.03000000000001,35.030000000000015,9.39959687352353e-15,2.96,2.8,2.865,2.8499999999999996,2.8,0.058949130612758034
1 -> 2,1.9186820000000009,1.918681999999999,1.918682,1.9186820000000002,1.9186820000000009,8.005932084973442e-16,58.5,58.5,58.5,58.5,58.5,0.0,35.030000000000015,35.029999999999994,35.03000000000001,35.03000000000001,35.030000000000015,9.39959687352353e-15,2.96,2.8,2.865,2.8499999999999996,2.8,0.058949130612758034
1 -> 2,1.9058780000000008,1.9058779999999986,1.905878,1.905878,1.9058780000000008,9.742167503148516e-16,58.5,58.5,58.5,58.5,58.5,0.0,35.030000000000015,35.029999999999994,35.03000000000001,35.03000000000001,35.030000000000015,9.39959687352353e-15,3.06,2.33,2.8,2.905,2.33,0.29231831964486926
1 -> 2,1.9058780000000008,1.9058779999999986,1.905878,1.905878,1.9058780000000008,9.742167503148516e-16,58.5,58.5,58.5,58.5,58.5,0.0,35.030000000000015,35.029999999999994,35.03000000000001,35.03000000000001,35.030000000000015,9.39959687352353e-15,3.06,2.33,2.8,2.905,2.33,0.29231831964486926
1 -> 2,1.9058780000000008,1.9058779999999986,1.905878,1.905878,1.9058780000000008,9.742167503148516e-16,58.5,58.5,58.5,58.5,58.5,0.0,35.030000000000015,35.029999999999994,35.03000000000001,35.03000000000001,35.030000000000015,9.39959687352353e-15,1.81,1.07,1.3425000000000002,1.245,1.07,0.29286302258905955
1 -> 2,1.9058780000000008,1.9058779999999986,1.905878,1.905878,1.9058780000000008,9.742167503148516e-16,58.5,58.5,58.5,58.5,58.5,0.0,35.030000000000015,35.029999999999994,35.03000000000001,35.03000000000001,35.030000000000015,9.39959687352353e-15,1.81,1.07,1.3425000000000002,1.245,1.07,0.29286302258905955
1 -> 2,1.9058780000000008,1.9058779999999986,1.905878,1.905878,1.9058780000000008,9.742167503148516e-16,58.5,58.5,58.5,58.5,58.5,0.0,35.030000000000015,35.029999999999994,35.03000000000001,35.03000000000001,35.030000000000015,9.39959687352353e-15,1.09,0.13,0.74,0.87,0.13,0.37861590035285103
1 -> 2,1.9058780000000008,1.9058779999999986,1.905878,1.905878,1.9058780000000008,9.742167503148516e-16,58.5,58.5,58.5,58.5,58.5,0.0,35.030000000000015,35.029999999999994,35.03000000000001,35.03000000000001,35.030000000000015,9.39959687352353e-15,1.09,0.13,0.74,0.87,0.13,0.37861590035285103
1 -> 2,1.9058780000000008,1.9058779999999986,1.905878,1.905878,1.9058780000000008,9.742167503148516e-16,58.5,58.5,58.5,58.5,58.5,0.0,35.030000000000015,35.029999999999994,35.03000000000001,35.03000000000001,35.030000000000015,9.39959687352353e-15,-0.66,-2.61,-1.7199999999999998,-1.8050000000000002,-2.61,0.733927789363504
1 -> 2,1.9058780000000008,1.9058779999999986,1.905878,1.905878,1.9058780000000008,9.742167503148516e-16,58.5,58.5,58.5,58.5,58.5,0.0,35.030000000000015,35.029999999999994,35.03000000000001,35.03000000000001,35.030000000000015,9.39959687352353e-15,-0.66,-2.61,-1.7199999999999998,-1.8050000000000002,-2.61,0.733927789363504
1 -> 2,1.8994760000000008,1.8994759999999993,1.8994760000000002,1.8994760000000002,1.8994760000000008,7.28021923224409e-16,58.5,58.5,58.5,58.5,58.5,0.0,35.030000000000015,35.029999999999994,35.03000000000001,35.03000000000001,35.030000000000015,9.39959687352353e-15,-2.94,-4.01,-3.4475,-3.42,-4.01,0.40008592827041534
1 -> 2,1.8994760000000008,1.8994759999999993,1.8994760000000002,1.8994760000000002,1.8994760000000008,7.28021923224409e-16,58.5,58.5,58.5,58.5,58.5,0.0,35.030000000000015,35.029999999999994,35.03000000000001,35.03000000000001,35.030000000000015,9.39959687352353e-15,-2.94,-4.01,-3.4475,-3.42,-4.01,0.40008592827041534
1 -> 2,1.8994760000000008,1.8994759999999993,1.8994760000000002,1.8994760000000002,1.8994760000000008,7.28021923224409e-16,58.5,58.5,58.5,58.5,58.5,0.0,35.030000000000015,35.029999999999994,35.03000000000001,35.03000000000001,35.030000000000015,9.39959687352353e-15,-3.61,-4.48,-4.175000000000001,-4.305,-4.48,0.33708307581366365
1 -> 2,1.8994760000000008,1.8994759999999993,1.8994760000000002,1.8994760000000002,1.8994760000000008,7.28021923224409e-16,58.5,58.5,58.5,58.5,58.5,0.0,35.030000000000015,35.029999999999994,35.03000000000001,35.03000000000001,35.030000000000015,9.39959687352353e-15,-3.61,-4.48,-4.175000000000001,-4.305,-4.48,0.33708307581366365
1 -> 2,1.8994760000000008,1.8994759999999993,1.8994760000000002,1.8994760000000002,1.8994760000000008,7.28021923224409e-16,58.5,58.5,58.5,58.5,58.5,0.0,35.030000000000015,35.029999999999994,35.03000000000001,35.03000000000001,35.030000000000015,9.39959687352353e-15,0.16,-2.69,-1.2174999999999998,-1.17,-2.69,1.0665921197908785
1 -> 2,1.8994760000000008,1.8994759999999993,1.8994760000000002,1.8994760000000002,1.8994760000000008,7.28021923224409e-16,58.5,58.5,58.5,58.5,58.5,0.0,35.030000000000015,35.029999999999994,35.03000000000001,35.03000000000001,35.030000000000015,9.39959687352353e-15,0.16,-2.69,-1.2174999999999998,-1.17,-2.69,1.0665921197908785
1 -> 2,1.8994760000000008,1.8994759999999993,1.8994760000000002,1.8994760000000002,1.8994760000000008,7.28021923224409e-16,58.5,58.5,58.5,58.5,58.5,0.0,35.030000000000015,35.029999999999994,35.03000000000001,35.03000000000001,35.030000000000015,9.39959687352353e-15,2.58,0.88,1.7675,1.805,0.88,0.6350344478845222
1 -> 2,1.8994760000000008,1.8994759999999993,1.8994760000000002,1.8994760000000002,1.8994760000000008,7.28021923224409e-16,58.5,58.5,58.5,58.5,58.5,0.0,35.030000000000015,35.029999999999994,35.03000000000001,35.03000000000001,35.030000000000015,9.39959687352353e-15,2.58,0.88,1.7675,1.805,0.88,0.6350344478845222
1 -> 2,1.9007560000000008,1.9007559999999994,1.9007560000000003,1.9007560000000003,1.9007560000000008,5.874748045952207e-16,58.5,58.5,58.5,58.5,58.5,0.0,35.030000000000015,35.029999999999994,35.03000000000001,35.03000000000001,35.030000000000015,9.39959687352353e-15,3.15,2.93,3.0700000000000003,3.1,2.93,0.08455767262643875
1 -> 2,1.9007560000000008,1.9007559999999994,1.9007560000000003,1.9007560000000003,1.9007560000000008,5.874748045952207e-16,58.5,58.5,58.5,58.5,58.5,0.0,35.030000000000015,35.029999999999994,35.03000000000001,35.03000000000001,35.030000000000015,9.39959687352353e-15,3.15,2.93,3.0700000000000003,3.1,2.93,0.08455767262643875
1 -> 2,1.9007560000000008,1.9007559999999994,1.9007560000000003,1.9007560000000003,1.9007560000000008,5.874748045952207e-16,58.5,58.5,58.5,58.5,58.5,0.0,35.030000000000015,35.029999999999994,35.03000000000001,35.03000000000001,35.030000000000015,9.39959687352353e-15,2.98,2.74,2.85,2.84,2.74,0.08999999999999994
1 -> 2,1.9007560000000008,1.9007559999999994,1.9007560000000003,1.9007560000000003,1.9007560000000008,5.874748045952207e-16,58.5,58.5,58.5,58.5,58.5,0.0,35.030000000000015,35.029999999999994,35.03000000000001,35.03000000000001,35.030000000000015,9.39959687352353e-15,2.98,2.74,2.85,2.84,2.74,0.08999999999999994
1 -> 2,1.9007560000000008,1.9007559999999994,1.9007560000000003,1.9007560000000003,1.9007560000000008,5.874748045952207e-16,58.5,58.5,58.5,58.5,58.5,0.0,35.030000000000015,35.029999999999994,35.03000000000001,35.03000000000001,35.030000000000015,9.39959687352353e-15,2.87,2.69,2.7525000000000004,2.7249999999999996,2.69,0.07361215932167735
1 -> 2,1.9007560000000008,1.9007559999999994,1.9007560000000003,1.9007560000000003,1.9007560000000008,5.874748045952207e-16,58.5,58.5,58.5,58.5,58.5,0.0,35.030000000000015,35.029999999999994,35.03000000000001,35.03000000000001,35.030000000000015,9.39959687352353e-15,2.87,2.69,2.7525000000000004,2.7249999999999996,2.69,0.07361215932167735
1 -> 2,1.9007560000000008,1.9007559999999994,1.9007560000000003,1.9007560000000003,1.9007560000000008,5.874748045952207e-16,58.5,58.5,58.5,58.5,58.5,0.0,35.030000000000015,35.029999999999994,35.03000000000001,35.03000000000001,35.030000000000015,9.39959687352353e-15,2.93,2.04,2.5874999999999995,2.69,2.04,0.34751798514609283
1 -> 2,1.9007560000000008,1.9007559999999994,1.9007560000000003,1.9007560000000003,1.9007560000000008,5.874748045952207e-16,58.5,58.5,58.5,58.5,58.5,0.0,35.030000000000015,35.029999999999994,35.03000000000001,35.03000000000001,35.030000000000015,9.39959687352353e-15,2.93,2.04,2.5874999999999995,2.69,2.04,0.34751798514609283
1 -> 2,1.9161210000000009,1.9161209999999995,1.9161210000000002,1.9161210000000004,1.9161210000000009,6.181460191301304e-16,65.0,65.0,65.0,65.0,65.0,0.0,35.030000000000015,35.029999999999994,35.03000000000001,35.03000000000001,35.030000000000015,9.39959687352353e-15,1.42,-0.17,0.5825,0.54,-0.17,0.5952047966876611
1 -> 2,1.9161210000000009,1.9161209999999995,1.9161210000000002,1.9161210000000004,1.9161210000000009,6.181460191301304e-16,65.0,65.0,65.0,65.0,65.0,0.0,35.030000000000015,35.029999999999994,35.03000000000001,35.03000000000001,35.030000000000015,9.39959687352353e-15,1.42,-0.17,0.5825,0.54,-0.17,0.5952047966876611
1 -> 2,1.9161210000000009,1.9161209999999995,1.9161210000000002,1.9161210000000004,1.9161210000000009,6.181460191301304e-16,65.0,65.0,65.0,65.0,65.0,0.0,35.030000000000015,35.029999999999994,35.03000000000001,35.03000000000001,35.030000000000015,9.39959687352353e-15,-0.55,-1.57,-1.06,-1.06,-1.57,0.38013155617496425
1 -> 2,1.9161210000000009,1.9161209999999995,1.9161210000000002,1.9161210000000004,1.9161210000000009,6.181460191301304e-16,65.0,65.0,65.0,65.0,65.0,0.0,35.030000000000015,35.029999999999994,35.03000000000001,35.03000000000001,35.030000000000015,9.39959687352353e-15,-0.55,-1.57,-1.06,-1.06,-1.57,0.38013155617496425
1 -> 2,1.9161210000000009,1.9161209999999995,1.9161210000000002,1.9161210000000004,1.9161210000000009,6.181460191301304e-16,65.0,65.0,65.0,65.0,65.0,0.0,35.030000000000015,35.029999999999994,35.03000000000001,35.03000000000001,35.030000000000015,9.39959687352353e-15,-1.95,-3.59,-2.7225,-2.675,-3.59,0.6134074909878424
1 -> 2,1.9161210000000009,1.9161209999999995,1.9161210000000002,1.9161210000000004,1.9161210000000009,6.181460191301304e-16,65.0,65.0,65.0,65.0,65.0,0.0,35.030000000000015,35.029999999999994,35.03000000000001,35.03000000000001,35.030000000000015,9.39959687352353e-15,-1.95,-3.59,-2.7225,-2.675,-3.59,0.6134074909878424
1 -> 2,1.9161210000000009,1.9161209999999995,1.9161210000000002,1.9161210000000004,1.9161210000000009,6.181460191301304e-16,65.0,65.0,65.0,65.0,65.0,0.0,35.030000000000015,35.029999999999994,35.03000000000001,35.03000000000001,35.030000000000015,9.39959687352353e-15,-4.27,-5.18,-4.865,-5.005,-5.18,0.36759352551425617
1 -> 2,1.9161210000000009,1.9161209999999995,1.9161210000000002,1.9161210000000004,1.9161210000000009,6.181460191301304e-16,65.0,65.0,65.0,65.0,65.0,0.0,35.030000000000015,35.029999999999994,35.03000000000001,35.03000000000001,35.030000000000015,9.39959687352353e-15,-4.27,-5.18,-4.865,-5.005,-5.18,0.36759352551425617
1 -> 2,1.9455710000000008,1.9455709999999986,1.945571,1.9455710000000002,1.9455710000000008,9.742167503148516e-16,65.0,65.0,65.0,65.0,65.0,0.0,35.030000000000015,35.029999999999994,35.03000000000001,35.03000000000001,35.030000000000015,9.39959687352353e-15,-1.55,-4.71,-3.2350000000000003,-3.34,-4.71,1.187634202942977
1 -> 2,1.9455710000000008,1.9455709999999986,1.945571,1.9455710000000002,1.9455710000000008,9.742167503148516e-16,65.0,65.0,65.0,65.0,65.0,0.0,35.030000000000015,35.029999999999994,35.03000000000001,35.03000000000001,35.030000000000015,9.39959687352353e-15,-1.55,-4.71,-3.2350000000000003,-3.34,-4.71,1.187634202942977
1 -> 2,1.9455710000000008,1.9455709999999986,1.945571,1.9455710000000002,1.9455710000000008,9.742167503148516e-16,65.0,65.0,65.0,65.0,65.0,0.0,35.030000000000015,35.029999999999994,35.03000000000001,35.03000000000001,35.030000000000015,9.39959687352353e-15,2.3,-0.31,1.125,1.255,-0.31,0.9835776532638386
1 -> 2,1.9455710000000008,1.9455709999999986,1.945571,1.9455710000000002,1.9455710000000008,9.742167503148516e-16,65.0,65.0,65.0,65.0,65.0,0.0,35.030000000000015,35.029999999999994,35.03000000000001,35.03000000000001,35.030000000000015,9.39959687352353e-15,2.3,-0.31,1.125,1.255,-0.31,0.9835776532638386
1 -> 2,1.9455710000000008,1.9455709999999986,1.945571,1.9455710000000002,1.9455710000000008,9.742167503148516e-16,65.0,65.0,65.0,65.0,65.0,0.0,35.030000000000015,35.029999999999994,35.03000000000001,35.03000000000001,35.030000000000015,9.39959687352353e-15,2.59,2.23,2.4575,2.505,2.23,0.14583809516035237
1 -> 2,1.9455710000000008,1.9455709999999986,1.945571,1.9455710000000002,1.9455710000000008,9.742167503148516e-16,65.0,65.0,65.0,65.0,65.0,0.0,35.030000000000015,35.029999999999994,35.03000000000001,35.03000000000001,35.030000000000015,9.39959687352353e-15,2.59,2.23,2.4575,2.505,2.23,0.14583809516035237
1 -> 2,1.9455710000000008,1.9455709999999986,1.945571,1.9455710000000002,1.9455710000000008,9.742167503148516e-16,65.0,65.0,65.0,65.0,65.0,0.0,35.030000000000015,35.029999999999994,35.03000000000001,35.03000000000001,35.030000000000015,9.39959687352353e-15,2.12,2.05,2.0875,2.09,2.09,0.024874685927665594
1 -> 2,1.9455710000000008,1.9455709999999986,1.945571,1.9455710000000002,1.9455710000000008,9.742167503148516e-16,65.0,65.0,65.0,65.0,65.0,0.0,35.030000000000015,35.029999999999994,35.03000000000001,35.03000000000001,35.030000000000015,9.39959687352353e-15,2.12,2.05,2.0875,2.09,2.09,0.024874685927665594
1 -> 2,1.9698980000000008,1.9698979999999986,1.969898,1.9698980000000001,1.9698980000000008,9.222205069512407e-16,65.0,65.0,65.0,65.0,65.0,0.0,35.030000000000015,35.029999999999994,35.03000000000001,35.03000000000001,35.030000000000015,9.39959687352353e-15,2.07,1.35,1.7399999999999998,1.77,1.35,0.272304976083802
1 -> 2,1.9698980000000008,1.9698979999999986,1.969898,1.9698980000000001,1.9698980000000008,9.222205069512407e-16,65.0,65.0,65.0,65.0,65.0,0.0,35.030000000000015,35.029999999999994,35.03000000000001,35.03000000000001,35.030000000000015,9.39959687352353e-15,2.07,1.35,1.7399999999999998,1.77,1.35,0.272304976083802
1 -> 2,1.9698980000000008,1.9698979999999986,1.969898,1.9698980000000001,1.9698980000000008,9.222205069512407e-16,65.0,65.0,65.0,65.0,65.0,0.0,35.030000000000015,35.029999999999994,35.03000000000001,35.03000000000001,35.030000000000015,9.39959687352353e-15,1.1,0.9,0.965,0.9299999999999999,0.9,0.08015609770940701
1 -> 2,1.9698980000000008,1.9698979999999986,1.969898,1.9698980000000001,1.9698980000000008,9.222205069512407e-16,65.0,65.0,65.0,65.0,65.0,0.0,35.030000000000015,35.029999999999994,35.03000000000001,35.03000000000001,35.030000000000015,9.39959687352353e-15,1.1,0.9,0.965,0.9299999999999999,0.9,0.08015609770940701
1 -> 2,1.9698980000000008,1.9698979999999986,1.969898,1.9698980000000001,1.9698980000000008,9.222205069512407e-16,65.0,65.0,65.0,65.0,65.0,0.0,35.030000000000015,35.029999999999994,35.03000000000001,35.03000000000001,35.030000000000015,9.39959687352353e-15,0.92,0.48,0.7525000000000001,0.8049999999999999,0.48,0.1725362280797862
1 -> 2,1.9698980000000008,1.9698979999999986,1.969898,1.9698980000000001,1.9698980000000008,9.222205069512407e-16,65.0,65.0,65.0,65.0,65.0,0.0,35.030000000000015,35.029999999999994,35.03000000000001,35.03000000000001,35.030000000000015,9.39959687352353e-15,0.92,0.48,0.7525000000000001,0.8049999999999999,0.48,0.1725362280797862
1 -> 2,1.9698980000000008,1.9698979999999986,1.969898,1.9698980000000001,1.9698980000000008,9.222205069512407e-16,65.0,65.0,65.0,65.0,65.0,0.0,35.030000000000015,35.029999999999994,35.03000000000001,35.03000000000001,35.030000000000015,9.39959687352353e-15,0.12,-1.25,-0.5475,-0.53,-1.25,0.5112423593561082
1 -> 2,1.9698980000000008,1.9698979999999986,1.969898,1.9698980000000001,1.9698980000000008,9.222205069512407e-16,65.0,65.0,65.0,65.0,65.0,0.0,35.030000000000015,35.029999999999994,35.03000000000001,35.03000000000001,35.030000000000015,9.39959687352353e-15,0.12,-1.25,-0.5475,-0.53,-1.25,0.5112423593561082
1 -> 2,1.998067000000001,1.9980669999999991,1.9980670000000003,1.9980670000000003,1.998067000000001,8.005932084973442e-16,65.0,65.0,65.0,65.0,65.0,0.0,35.030000000000015,35.029999999999994,35.03000000000001,35.03000000000001,35.030000000000015,9.39959687352353e-15,-1.81,-3.91,-2.8449999999999998,-2.83,-3.91,0.7873531609131953
1 -> 2,1.998067000000001,1.9980669999999991,1.9980670000000003,1.9980670000000003,1.998067000000001,8.005932084973442e-16,65.0,65.0,65.0,65.0,65.0,0.0,35.030000000000015,35.029999999999994,35.03000000000001,35.03000000000001,35.030000000000015,9.39959687352353e-15,-1.81,-3.91,-2.8449999999999998,-2.83,-3.91,0.7873531609131953
1 -> 2,1.998067000000001,1.9980669999999991,1.9980670000000003,1.9980670000000003,1.998067000000001,8.005932084973442e-16,65.0,65.0,65.0,65.0,65.0,0.0,35.030000000000015,35.029999999999994,35.03000000000001,35.03000000000001,35.030000000000015,9.39959687352353e-15,-4.24,-4.74,-4.5275,-4.5649999999999995,-4.74,0.19279198634798078
1 -> 2,1.998067000000001,1.9980669999999991,1.9980670000000003,1.9980670000000003,1.998067000000001,8.005932084973442e-16,65.0,65.0,65.0,65.0,65.0,0.0,35.030000000000015,35.029999999999994,35.03000000000001,35.03000000000001,35.030000000000015,9.39959687352353e-15,-4.24,-4.74,-4.5275,-4.5649999999999995,-4.74,0.19279198634798078
1 -> 2,1.998067000000001,1.9980669999999991,1.9980670000000003,1.9980670000000003,1.998067000000001,8.005932084973442e-16,65.0,65.0,65.0,65.0,65.0,0.0,35.030000000000015,35.029999999999994,35.03000000000001,35.03000000000001,35.030000000000015,9.39959687352353e-15,-0.88,-3.56,-2.24,-2.2600000000000002,-3.56,1.0019980039900278
1 -> 2,1.998067000000001,1.9980669999999991,1.9980670000000003,1.9980670000000003,1.998067000000001,8.005932084973442e-16,65.0,65.0,65.0,65.0,65.0,0.0,35.030000000000015,35.029999999999994,35.03000000000001,35.03000000000001,35.030000000000015,9.39959687352353e-15,-0.88,-3.56,-2.24,-2.2600000000000002,-3.56,1.0019980039900278
1 -> 2,1.998067000000001,1.9980669999999991,1.9980670000000003,1.9980670000000003,1.998067000000001,8.005932084973442e-16,65.0,65.0,65.0,65.0,65.0,0.0,35.030000000000015,35.029999999999994,35.03000000000001,35.03000000000001,35.030000000000015,9.39959687352353e-15,1.78,-0.03,0.94,1.005,-0.03,0.676202632352167
1 -> 2,1.998067000000001,1.9980669999999991,1.9980670000000003,1.9980670000000003,1.998067000000001,8.005932084973442e-16,65.0,65.0,65.0,65.0,65.0,0.0,35.030000000000015,35.029999999999994,35.03000000000001,35.03000000000001,35.030000000000015,9.39959687352353e-15,1.78,-0.03,0.94,1.005,-0.03,0.676202632352167
1 -> 2,2.014713000000001,2.014712999999999,2.0147130000000004,2.0147130000000004,2.014713000000001,7.364386412590295e-16,69.0,69.0,69.0,69.0,69.0,0.0,35.030000000000015,35.029999999999994,35.03000000000001,35.03000000000001,35.030000000000015,9.39959687352353e-15,3.05,2.17,2.6399999999999997,2.67,2.17,0.33007574888198005
1 -> 2,2.014713000000001,2.014712999999999,2.0147130000000004,2.0147130000000004,2.014713000000001,7.364386412590295e-16,69.0,69.0,69.0,69.0,69.0,0.0,35.030000000000015,35.029999999999994,35.03000000000001,35.03000000000001,35.030000000000015,9.39959687352353e-15,3.05,2.17,2.6399999999999997,2.67,2.17,0.33007574888198005
1 -> 2,2.014713000000001,2.014712999999999,2.0147130000000004,2.0147130000000004,2.014713000000001,7.364386412590295e-16,69.0,69.0,69.0,69.0,69.0,0.0,35.030000000000015,35.029999999999994,35.03000000000001,35.03000000000001,35.030000000000015,9.39959687352353e-15,3.16,2.81,3.025,3.065,2.81,0.1379311422413372
1 -> 2,2.014713000000001,2.014712999999999,2.0147130000000004,2.0147130000000004,2.014713000000001,7.364386412590295e-16,69.0,69.0,69.0,69.0,69.0,0.0,35.030000000000015,35.029999999999994,35.03000000000001,35.03000000000001,35.030000000000015,9.39959687352353e-15,3.16,2.81,3.025,3.065,2.81,0.1379311422413372
1 -> 2,2.014713000000001,2.014712999999999,2.0147130000000004,2.0147130000000004,2.014713000000001,7.364386412590295e-16,69.0,69.0,69.0,69.0,69.0,0.0,35.030000000000015,35.029999999999994,35.03000000000001,35.03000000000001,35.030000000000015,9.39959687352353e-15,2.63,2.24,2.4325,2.43,2.24,0.14428704030508066
1 -> 2,2.014713000000001,2.014712999999999,2.0147130000000004,2.0147130000000004,2.014713000000001,7.364386412590295e-16,69.0,69.0,69.0,69.0,69.0,0.0,35.030000000000015,35.029999999999994,35.03000000000001,35.03000000000001,35.030000000000015,9.39959687352353e-15,2.63,2.24,2.4325,2.43,2.24,0.14428704030508066
1 -> 2,2.014713000000001,2.014712999999999,2.0147130000000004,2.0147130000000004,2.014713000000001,7.364386412590295e-16,69.0,69.0,69.0,69.0,69.0,0.0,35.030000000000015,35.029999999999994,35.03000000000001,35.03000000000001,35.030000000000015,9.39959687352353e-15,2.07,1.47,1.7724999999999997,1.775,1.47,0.22476376487325528
1 -> 2,2.014713000000001,2.014712999999999,2.0147130000000004,2.0147130000000004,2.014713000000001,7.364386412590295e-16,69.0,69.0,69.0,69.0,69.0,0.0,35.030000000000015,35.029999999999994,35.03000000000001,35.03000000000001,35.030000000000015,9.39959687352353e-15,2.07,1.47,1.7724999999999997,1.775,1.47,0.22476376487325528
1 -> 2,2.018554000000001,2.018553999999999,2.018554,2.018554,2.018554000000001,8.005932084973442e-16,69.0,69.0,69.0,69.0,69.0,0.0,35.030000000000015,35.029999999999994,35.03000000000001,35.03000000000001,35.030000000000015,9.39959687352353e-15,1.24,0.11,0.73,0.7849999999999999,0.11,0.42396933851400154
1 -> 2,2.018554000000001,2.018553999999999,2.018554,2.018554,2.018554000000001,8.005932084973442e-16,69.0,69.0,69.0,69.0,69.0,0.0,35.030000000000015,35.029999999999994,35.03000000000001,35.03000000000001,35.030000000000015,9.39959687352353e-15,1.24,0.11,0.73,0.7849999999999999,0.11,0.42396933851400154
1 -> 2,2.018554000000001,2.018553999999999,2.018554,2.018554,2.018554000000001,8.005932084973442e-16,69.0,69.0,69.0,69.0,69.0,0.0,35.030000000000015,35.029999999999994,35.03000000000001,35.03000000000001,35.030000000000015,9.39959687352353e-15,-0.49,-2.43,-1.48,-1.5,-2.43,0.7247758274114832
1 -> 2,2.018554000000001,2.018553999999999,2.018554,2.018554,2.018554000000001,8.005932084973442e-16,69.0,69.0,69.0,69.0,69.0,0.0,35.030000000000015,35.029999999999994,35.03000000000001,35.03000000000001,35.030000000000015,9.39959687352353e-15,-0.49,-2.43,-1.48,-1.5,-2.43,0.7247758274114832
1 -> 2,2.018554000000001,2.018553999999999,2.018554,2.018554,2.018554000000001,8.005932084973442e-16,69.0,69.0,69.0,69.0,69.0,0.0,35.030000000000015,35.029999999999994,35.03000000000001,35.03000000000001,35.030000000000015,9.39959687352353e-15,-2.94,-4.09,-3.5324999999999998,-3.55,-4.09,0.4285659225836791
1 -> 2,2.018554000000001,2.018553999999999,2.018554,2.018554,2.018554000000001,8.005932084973442e-16,69.0,69.0,69.0,69.0,69.0,0.0,35.030000000000015,35.029999999999994,35.03000000000001,35.03000000000001,35.030000000000015,9.39959687352353e-15,-2.94,-4.09,-3.5324999999999998,-3.55,-4.09,0.4285659225836791
1 -> 2,2.018554000000001,2.018553999999999,2.018554,2.018554,2.018554000000001,8.005932084973442e-16,69.0,69.0,69.0,69.0,69.0,0.0,35.030000000000015,35.029999999999994,35.03000000000001,35.03000000000001,35.030000000000015,9.39959687352353e-15,-3.84,-4.46,-4.2425,-4.335,-4.46,0.23857650764482247
1 -> 2,2.018554000000001,2.018553999999999,2.018554,2.018554,2.018554000000001,8.005932084973442e-16,69.0,69.0,69.0,69.0,69.0,0.0,35.030000000000015,35.029999999999994,35.03000000000001,35.03000000000001,35.030000000000015,9.39959687352353e-15,-3.84,-4.46,-4.2425,-4.335,-4.46,0.23857650764482247
1 -> 2,2.014713000000001,2.014712999999999,2.0147130000000004,2.0147130000000004,2.014713000000001,7.364386412590295e-16,69.0,69.0,69.0,69.0,69.0,0.0,35.030000000000015,35.029999999999994,35.03000000000001,35.03000000000001,35.030000000000015,9.39959687352353e-15,-0.49,-3.12,-1.7975,-1.79,-3.12,0.9828116554050426
1 -> 2,2.014713000000001,2.014712999999999,2.0147130000000004,2.0147130000000004,2.014713000000001,7.364386412590295e-16,69.0,69.0,69.0,69.0,69.0,0.0,35.030000000000015,35.029999999999994,35.03000000000001,35.03000000000001,35.030000000000015,9.39959687352353e-15,-0.49,-3.12,-1.7975,-1.79,-3.12,0.9828116554050426
1 -> 2,2.014713000000001,2.014712999999999,2.0147130000000004,2.0147130000000004,2.014713000000001,7.364386412590295e-16,69.0,69.0,69.0,69.0,69.0,0.0,35.030000000000015,35.029999999999994,35.03000000000001,35.03000000000001,35.030000000000015,9.39959687352353e-15,1.95,0.25,1.1475,1.195,0.25,0.6357033506282628
1 -> 2,2.014713000000001,2.014712999999999,2.0147130000000004,2.0147130000000004,2.014713000000001,7.364386412590295e-16,69.0,69.0,69.0,69.0,69.0,0.0,35.030000000000015,35.029999999999994,35.03000000000001,35.03000000000001,35.030000000000015,9.39959687352353e-15,1.95,0.25,1.1475,1.195,0.25,0.6357033506282628
1 -> 2,2.014713000000001,2.014712999999999,2.0147130000000004,2.0147130000000004,2.014713000000001,7.364386412590295e-16,69.0,69.0,69.0,69.0,69.0,0.0,35.030000000000015,35.029999999999994,35.03000000000001,35.03000000000001,35.030000000000015,9.39959687352353e-15,2.71,2.3,2.5475000000000003,2.59,2.3,0.1569036328451321
1 -> 2,2.014713000000001,2.014712999999999,2.0147130000000004,2.0147130000000004,2.014713000000001,7.364386412590295e-16,69.0,69.0,69.0,69.0,69.0,0.0,35.030000000000015,35.029999999999994,35.03000000000001,35.03000000000001,35.030000000000015,9.39959687352353e-15,2.71,2.3,2.5475000000000003,2.59,2.3,0.1569036328451321
1 -> 2,2.014713000000001,2.014712999999999,2.0147130000000004,2.0147130000000004,2.014713000000001,7.364386412590295e-16,69.0,69.0,69.0,69.0,69.0,0.0,35.030000000000015,35.029999999999994,35.03000000000001,35.03000000000001,35.030000000000015,9.39959687352353e-15,2.74,2.51,2.6675,2.71,2.74,0.09417404100918698
1 -> 2,2.014713000000001,2.014712999999999,2.0147130000000004,2.0147130000000004,2.014713000000001,7.364386412590295e-16,69.0,69.0,69.0,69.0,69.0,0.0,35.030000000000015,35.029999999999994,35.03000000000001,35.03000000000001,35.030000000000015,9.39959687352353e-15,2.74,2.51,2.6675,2.71,2.74,0.09417404100918698
1 -> 2,1.9993480000000008,1.9993479999999988,1.999348,1.9993480000000001,1.9993480000000008,8.671119018262734e-16,69.0,69.0,69.0,69.0,69.0,0.0,35.030000000000015,35.029999999999994,35.03000000000001,35.03000000000001,35.030000000000015,9.39959687352353e-15,2.25,1.73,1.9300000000000002,1.87,1.73,0.20591260281974
1 -> 2,1.9993480000000008,1.9993479999999988,1.999348,1.9993480000000001,1.9993480000000008,8.671119018262734e-16,69.0,69.0,69.0,69.0,69.0,0.0,35.030000000000015,35.029999999999994,35.03000000000001,35.03000000000001,35.030000000000015,9.39959687352353e-15,2.25,1.73,1.9300000000000002,1.87,1.73,0.20591260281974
1 -> 2,1.9993480000000008,1.9993479999999988,1.999348,1.9993480000000001,1.9993480000000008,8.671119018262734e-16,69.0,69.0,69.0,69.0,69.0,0.0,35.030000000000015,35.029999999999994,35.03000000000001,35.03000000000001,35.030000000000015,9.39959687352353e-15,2.09,1.85,1.975,1.98,1.85,0.08958236433584452
1 -> 2,1.9993480000000008,1.9993479999999988,1.999348,1.9993480000000001,1.9993480000000008,8.671119018262734e-16,69.0,69.0,69.0,69.0,69.0,0.0,35.030000000000015,35.029999999999994,35.03000000000001,35.03000000000001,35.030000000000015,9.39959687352353e-15,2.09,1.85,1.975,1.98,1.85,0.08958236433584452
1 -> 2,1.9993480000000008,1.9993479999999988,1.999348,1.9993480000000001,1.9993480000000008,8.671119018262734e-16,69.0,69.0,69.0,69.0,69.0,0.0,35.030000000000015,35.029999999999994,35.03000000000001,35.03000000000001,35.030000000000015,9.39959687352353e-15,1.53,-0.58,0.5125000000000001,0.55,-0.58,0.7914346151135924
1 -> 2,1.9993480000000008,1.9993479999999988,1.999348,1.9993480000000001,1.9993480000000008,8.671119018262734e-16,69.0,69.0,69.0,69.0,69.0,0.0,35.030000000000015,35.029999999999994,35.03000000000001,35.03000000000001,35.030000000000015,9.39959687352353e-15,1.53,-0.58,0.5125000000000001,0.55,-0.58,0.7914346151135924
1 -> 2,1.9993480000000008,1.9993479999999988,1.999348,1.9993480000000001,1.9993480000000008,8.671119018262734e-16,69.0,69.0,69.0,69.0,69.0,0.0,35.030000000000015,35.029999999999994,35.03000000000001,35.03000000000001,35.030000000000015,9.39959687352353e-15,-1.32,-3.2,-2.295,-2.33,-3.2,0.7030113797087498
1 -> 2,1.9993480000000008,1.9993479999999988,1.999348,1.9993480000000001,1.9993480000000008,8.671119018262734e-16,69.0,69.0,69.0,69.0,69.0,0.0,35.030000000000015,35.029999999999994,35.03000000000001,35.03000000000001,35.030000000000015,9.39959687352353e-15,-1.32,-3.2,-2.295,-2.33,-3.2,0.7030113797087498
1 -> 2,1.9852630000000009,1.9852629999999993,1.9852630000000002,1.9852630000000004,1.9852630000000009,6.568167990716596e-16,72.4,72.4,72.4,72.4,72.4,0.0,35.000000000000014,34.99999999999999,35.0,35.0,34.99999999999999,1.1234667099445444e-14,-3.63,-3.96,-3.84,-3.885,-3.96,0.12509996003196808
1 -> 2,1.9852630000000009,1.9852629999999993,1.9852630000000002,1.9852630000000004,1.9852630000000009,6.568167990716596e-16,72.4,72.4,72.4,72.4,72.4,0.0,35.000000000000014,34.99999999999999,35.0,35.0,34.99999999999999,1.1234667099445444e-14,-3.63,-3.96,-3.84,-3.885,-3.96,0.12509996003196808
1 -> 2,1.9852630000000009,1.9852629999999993,1.9852630000000002,1.9852630000000004,1.9852630000000009,6.568167990716596e-16,72.4,72.4,72.4,72.4,72.4,0.0,35.000000000000014,34.99999999999999,35.0,35.0,34.99999999999999,1.1234667099445444e-14,-1.82,-3.65,-2.855,-2.975,-3.65,0.6903079023160607
1 -> 2,1.9852630000000009,1.9852629999999993,1.9852630000000002,1.9852630000000004,1.9852630000000009,6.568167990716596e-16,72.4,72.4,72.4,72.4,72.4,0.0,35.000000000000014,34.99999999999999,35.0,35.0,34.99999999999999,1.1234667099445444e-14,-1.82,-3.65,-2.855,-2.975,-3.65,0.6903079023160607
1 -> 2,1.9852630000000009,1.9852629999999993,1.9852630000000002,1.9852630000000004,1.9852630000000009,6.568167990716596e-16,72.4,72.4,72.4,72.4,72.4,0.0,35.000000000000014,34.99999999999999,35.0,35.0,34.99999999999999,1.1234667099445444e-14,2.93,-0.69,1.19,1.26,-0.69,1.3593196827825307
1 -> 2,1.9852630000000009,1.9852629999999993,1.9852630000000002,1.9852630000000004,1.9852630000000009,6.568167990716596e-16,72.4,72.4,72.4,72.4,72.4,0.0,35.000000000000014,34.99999999999999,35.0,35.0,34.99999999999999,1.1234667099445444e-14,2.93,-0.69,1.19,1.26,-0.69,1.3593196827825307
1 -> 2,1.9852630000000009,1.9852629999999993,1.9852630000000002,1.9852630000000004,1.9852630000000009,6.568167990716596e-16,72.4,72.4,72.4,72.4,72.4,0.0,35.000000000000014,34.99999999999999,35.0,35.0,34.99999999999999,1.1234667099445444e-14,3.73,3.4,3.5749999999999997,3.585,3.4,0.11968709203585828
1 -> 2,1.9852630000000009,1.9852629999999993,1.9852630000000002,1.9852630000000004,1.9852630000000009,6.568167990716596e-16,72.4,72.4,72.4,72.4,72.4,0.0,35.000000000000014,34.99999999999999,35.0,35.0,34.99999999999999,1.1234667099445444e-14,3.73,3.4,3.5749999999999997,3.585,3.4,0.11968709203585828
1 -> 2,1.9763000000000008,1.9762999999999995,1.9763000000000002,1.9763000000000002,1.9762999999999995,6.661338147750939e-16,72.4,72.4,72.4,72.4,72.4,0.0,35.000000000000014,34.99999999999999,35.0,35.0,34.99999999999999,1.1234667099445444e-14,3.24,3.03,3.15,3.165,3.03,0.07648529270389193
1 -> 2,1.9763000000000008,1.9762999999999995,1.9763000000000002,1.9763000000000002,1.9762999999999995,6.661338147750939e-16,72.4,72.4,72.4,72.4,72.4,0.0,35.000000000000014,34.99999999999999,35.0,35.0,34.99999999999999,1.1234667099445444e-14,3.24,3.03,3.15,3.165,3.03,0.07648529270389193
1 -> 2,1.9763000000000008,1.9762999999999995,1.9763000000000002,1.9763000000000002,1.9762999999999995,6.661338147750939e-16,72.4,72.4,72.4,72.4,72.4,0.0,35.000000000000014,34.99999999999999,35.0,35.0,34.99999999999999,1.1234667099445444e-14,2.77,1.62,2.185,2.175,1.62,0.4317696144936556
1 -> 2,1.9763000000000008,1.9762999999999995,1.9763000000000002,1.9763000000000002,1.9762999999999995,6.661338147750939e-16,72.4,72.4,72.4,72.4,72.4,0.0,35.000000000000014,34.99999999999999,35.0,35.0,34.99999999999999,1.1234667099445444e-14,2.77,1.62,2.185,2.175,1.62,0.4317696144936556
1 -> 2,1.9763000000000008,1.9762999999999995,1.9763000000000002,1.9763000000000002,1.9762999999999995,6.661338147750939e-16,72.4,72.4,72.4,72.4,72.4,0.0,35.000000000000014,34.99999999999999,35.0,35.0,34.99999999999999,1.1234667099445444e-14,1.39,1.26,1.305,1.2850000000000001,1.26,0.050249378105604404
1 -> 2,1.9763000000000008,1.9762999999999995,1.9763000000000002,1.9763000000000002,1.9762999999999995,6.661338147750939e-16,72.4,72.4,72.4,72.4,72.4,0.0,35.000000000000014,34.99999999999999,35.0,35.0,34.99999999999999,1.1234667099445444e-14,1.39,1.26,1.305,1.2850000000000001,1.26,0.050249378105604404
1 -> 2,1.9763000000000008,1.9762999999999995,1.9763000000000002,1.9763000000000002,1.9762999999999995,6.661338147750939e-16,72.4,72.4,72.4,72.4,72.4,0.0,35.000000000000014,34.99999999999999,35.0,35.0,34.99999999999999,1.1234667099445444e-14,1.35,1.05,1.25,1.3,1.05,0.11916375287812986
1 -> 2,1.9763000000000008,1.9762999999999995,1.9763000000000002,1.9763000000000002,1.9762999999999995,6.661338147750939e-16,72.4,72.4,72.4,72.4,72.4,0.0,35.000000000000014,34.99999999999999,35.0,35.0,34.99999999999999,1.1234667099445444e-14,1.35,1.05,1.25,1.3,1.05,0.11916375287812986
1 -> 2,1.9660570000000008,1.9660569999999995,1.9660570000000002,1.9660570000000002,1.9660570000000008,6.181460191301304e-16,72.4,72.4,72.4,72.4,72.4,0.0,35.000000000000014,34.99999999999999,35.0,35.0,34.99999999999999,1.1234667099445444e-14,0.65,-1.19,-0.25,-0.23000000000000004,-1.19,0.6890573270780886
1 -> 2,1.9660570000000008,1.9660569999999995,1.9660570000000002,1.9660570000000002,1.9660570000000008,6.181460191301304e-16,72.4,72.4,72.4,72.4,72.4,0.0,35.000000000000014,34.99999999999999,35.0,35.0,34.99999999999999,1.1234667099445444e-14,0.65,-1.19,-0.25,-0.23000000000000004,-1.19,0.6890573270780886
1 -> 2,1.9660570000000008,1.9660569999999995,1.9660570000000002,1.9660570000000002,1.9660570000000008,6.181460191301304e-16,72.4,72.4,72.4,72.4,72.4,0.0,35.000000000000014,34.99999999999999,35.0,35.0,34.99999999999999,1.1234667099445444e-14,-1.76,-3.03,-2.4299999999999997,-2.465,-3.03,0.4753419821560052
1 -> 2,1.9660570000000008,1.9660569999999995,1.9660570000000002,1.9660570000000002,1.9660570000000008,6.181460191301304e-16,72.4,72.4,72.4,72.4,72.4,0.0,35.000000000000014,34.99999999999999,35.0,35.0,34.99999999999999,1.1234667099445444e-14,-1.76,-3.03,-2.4299999999999997,-2.465,-3.03,0.4753419821560052
1 -> 2,1.9660570000000008,1.9660569999999995,1.9660570000000002,1.9660570000000002,1.9660570000000008,6.181460191301304e-16,72.4,72.4,72.4,72.4,72.4,0.0,35.000000000000014,34.99999999999999,35.0,35.0,34.99999999999999,1.1234667099445444e-14,-2.58,-3.28,-3.0399999999999996,-3.15,-3.28,0.2817800560721073
1 -> 2,1.9660570000000008,1.9660569999999995,1.9660570000000002,1.9660570000000002,1.9660570000000008,6.181460191301304e-16,72.4,72.4,72.4,72.4,72.4,0.0,35.000000000000014,34.99999999999999,35.0,35.0,34.99999999999999,1.1234667099445444e-14,-2.58,-3.28,-3.0399999999999996,-3.15,-3.28,0.2817800560721073
1 -> 2,1.9660570000000008,1.9660569999999995,1.9660570000000002,1.9660570000000002,1.9660570000000008,6.181460191301304e-16,72.4,72.4,72.4,72.4,72.4,0.0,35.000000000000014,34.99999999999999,35.0,35.0,34.99999999999999,1.1234667099445444e-14,0.09,-1.96,-0.9375000000000001,-0.94,-1.96,0.7636221251378197
1 -> 2,1.9660570000000008,1.9660569999999995,1.9660570000000002,1.9660570000000002,1.9660570000000008,6.181460191301304e-16,72.4,72.4,72.4,72.4,72.4,0.0,35.000000000000014,34.99999999999999,35.0,35.0,34.99999999999999,1.1234667099445444e-14,0.09,-1.96,-0.9375000000000001,-0.94,-1.96,0.7636221251378197
1 -> 2,1.9596550000000008,1.9596549999999986,1.9596549999999997,1.959655,1.9596550000000008,1.0175362097255202e-15,72.4,72.4,72.4,72.4,72.4,0.0,35.000000000000014,34.99999999999999,35.0,35.0,34.99999999999999,1.1234667099445444e-14,2.82,0.82,1.8725,1.9249999999999998,0.82,0.7521760099870242
1 -> 2,1.9596550000000008,1.9596549999999986,1.9596549999999997,1.959655,1.9596550000000008,1.0175362097255202e-15,72.4,72.4,72.4,72.4,72.4,0.0,35.000000000000014,34.99999999999999,35.0,35.0,34.99999999999999,1.1234667099445444e-14,2.82,0.82,1.8725,1.9249999999999998,0.82,0.7521760099870242
1 -> 2,1.9596550000000008,1.9596549999999986,1.9596549999999997,1.959655,1.9596550000000008,1.0175362097255202e-15,72.4,72.4,72.4,72.4,72.4,0.0,35.000000000000014,34.99999999999999,35.0,35.0,34.99999999999999,1.1234667099445444e-14,3.09,2.47,2.855,2.9299999999999997,2.47,0.24924887161229026
1 -> 2,1.9596550000000008,1.9596549999999986,1.9596549999999997,1.959655,1.9596550000000008,1.0175362097255202e-15,72.4,72.4,72.4,72.4,72.4,0.0,35.000000000000014,34.99999999999999,35.0,35.0,34.99999999999999,1.1234667099445444e-14,3.09,2.47,2.855,2.9299999999999997,2.47,0.24924887161229026
1 -> 2,1.9596550000000008,1.9596549999999986,1.9596549999999997,1.959655,1.9596550000000008,1.0175362097255202e-15,72.4,72.4,72.4,72.4,72.4,0.0,35.000000000000014,34.99999999999999,35.0,35.0,34.99999999999999,1.1234667099445444e-14,2.38,2.12,2.23,2.21,2.12,0.09433981132056594
1 -> 2,1.9596550000000008,1.9596549999999986,1.9596549999999997,1.959655,1.9596550000000008,1.0175362097255202e-15,72.4,72.4,72.4,72.4,72.4,0.0,35.000000000000014,34.99999999999999,35.0,35.0,34.99999999999999,1.1234667099445444e-14,2.38,2.12,2.23,2.21,2.12,0.09433981132056594
1 -> 2,1.9596550000000008,1.9596549999999986,1.9596549999999997,1.959655,1.9596550000000008,1.0175362097255202e-15,72.4,72.4,72.4,72.4,72.4,0.0,35.000000000000014,34.99999999999999,35.0,35.0,34.99999999999999,1.1234667099445444e-14,2.92,2.59,2.7975,2.84,2.59,0.1312202347201071
1 -> 2,1.9596550000000008,1.9596549999999986,1.9596549999999997,1.959655,1.9596550000000008,1.0175362097255202e-15,72.4,72.4,72.4,72.4,72.4,0.0,35.000000000000014,34.99999999999999,35.0,35.0,34.99999999999999,1.1234667099445444e-14,2.92,2.59,2.7975,2.84,2.59,0.1312202347201071
1 -> 2,1.9494120000000008,1.9494119999999984,1.9494119999999997,1.949412,1.9494120000000008,1.0821115497893178e-15,75.83,75.83,75.83,75.83,75.83,0.0,35.030000000000015,35.029999999999994,35.03000000000001,35.03000000000001,35.030000000000015,9.39959687352353e-15,2.82,1.63,2.295,2.365,1.63,0.45047197471096906
1 -> 2,1.9494120000000008,1.9494119999999984,1.9494119999999997,1.949412,1.9494120000000008,1.0821115497893178e-15,75.83,75.83,75.83,75.83,75.83,0.0,35.030000000000015,35.029999999999994,35.03000000000001,35.03000000000001,35.030000000000015,9.39959687352353e-15,2.82,1.63,2.295,2.365,1.63,0.45047197471096906
1 -> 2,1.9494120000000008,1.9494119999999984,1.9494119999999997,1.949412,1.9494120000000008,1.0821115497893178e-15,75.83,75.83,75.83,75.83,75.83,0.0,35.030000000000015,35.029999999999994,35.03000000000001,35.03000000000001,35.030000000000015,9.39959687352353e-15,1.06,-0.23,0.36250000000000004,0.31,-0.23,0.4847357527560764
1 -> 2,1.9494120000000008,1.9494119999999984,1.9494119999999997,1.949412,1.9494120000000008,1.0821115497893178e-15,75.83,75.83,75.83,75.83,75.83,0.0,35.030000000000015,35.029999999999994,35.03000000000001,35.03000000000001,35.030000000000015,9.39959687352353e-15,1.06,-0.23,0.36250000000000004,0.31,-0.23,0.4847357527560764
1 -> 2,1.9494120000000008,1.9494119999999984,1.9494119999999997,1.949412,1.9494120000000008,1.0821115497893178e-15,75.83,75.83,75.83,75.83,75.83,0.0,35.030000000000015,35.029999999999994,35.03000000000001,35.03000000000001,35.030000000000015,9.39959687352353e-15,-0.5,-1.61,-1.0025,-0.95,-1.61,0.41589511899035314
1 -> 2,1.9494120000000008,1.9494119999999984,1.9494119999999997,1.949412,1.9494120000000008,1.0821115497893178e-15,75.83,75.83,75.83,75.83,75.83,0.0,35.030000000000015,35.029999999999994,35.03000000000001,35.03000000000001,35.030000000000015,9.39959687352353e-15,-0.5,-1.61,-1.0025,-0.95,-1.61,0.41589511899035314
1 -> 2,1.9494120000000008,1.9494119999999984,1.9494119999999997,1.949412,1.9494120000000008,1.0821115497893178e-15,75.83,75.83,75.83,75.83,75.83,0.0,35.030000000000015,35.029999999999994,35.03000000000001,35.03000000000001,35.030000000000015,9.39959687352353e-15,-2.21,-4.31,-3.2574999999999994,-3.255,-4.31,0.7837529904249169
1 -> 2,1.9494120000000008,1.9494119999999984,1.9494119999999997,1.949412,1.9494120000000008,1.0821115497893178e-15,75.83,75.83,75.83,75.83,75.83,0.0,35.030000000000015,35.029999999999994,35.03000000000001,35.03000000000001,35.030000000000015,9.39959687352353e-15,-2.21,-4.31,-3.2574999999999994,-3.255,-4.31,0.7837529904249169
1 -> 2,1.9430100000000008,1.943009999999999,1.94301,1.9430100000000001,1.9430100000000008,8.005932084973442e-16,75.83,75.83,75.83,75.83,75.83,0.0,35.030000000000015,35.029999999999994,35.03000000000001,35.03000000000001,35.030000000000015,9.39959687352353e-15,-4.9,-5.35,-5.135,-5.145,-5.35,0.18580904176062032
1 -> 2,1.9430100000000008,1.943009999999999,1.94301,1.9430100000000001,1.9430100000000008,8.005932084973442e-16,75.83,75.83,75.83,75.83,75.83,0.0,35.030000000000015,35.029999999999994,35.03000000000001,35.03000000000001,35.030000000000015,9.39959687352353e-15,-4.9,-5.35,-5.135,-5.145,-5.35,0.18580904176062032
1 -> 2,1.9430100000000008,1.943009999999999,1.94301,1.9430100000000001,1.9430100000000008,8.005932084973442e-16,75.83,75.83,75.83,75.83,75.83,0.0,35.030000000000015,35.029999999999994,35.03000000000001,35.03000000000001,35.030000000000015,9.39959687352353e-15,-0.68,-4.25,-2.505,-2.545,-4.25,1.3379181589320028
1 -> 2,1.9430100000000008,1.943009999999999,1.94301,1.9430100000000001,1.9430100000000008,8.005932084973442e-16,75.83,75.83,75.83,75.83,75.83,0.0,35.030000000000015,35.029999999999994,35.03000000000001,35.03000000000001,35.030000000000015,9.39959687352353e-15,-0.68,-4.25,-2.505,-2.545,-4.25,1.3379181589320028
1 -> 2,1.9430100000000008,1.943009999999999,1.94301,1.9430100000000001,1.9430100000000008,8.005932084973442e-16,75.83,75.83,75.83,75.83,75.83,0.0,35.030000000000015,35.029999999999994,35.03000000000001,35.03000000000001,35.030000000000015,9.39959687352353e-15,2.03,0.37,1.3024999999999998,1.4049999999999998,0.37,0.6245548414671045
1 -> 2,1.9430100000000008,1.943009999999999,1.94301,1.9430100000000001,1.9430100000000008,8.005932084973442e-16,75.83,75.83,75.83,75.83,75.83,0.0,35.030000000000015,35.029999999999994,35.03000000000001,35.03000000000001,35.030000000000015,9.39959687352353e-15,2.03,0.37,1.3024999999999998,1.4049999999999998,0.37,0.6245548414671045
1 -> 2,1.9430100000000008,1.943009999999999,1.94301,1.9430100000000001,1.9430100000000008,8.005932084973442e-16,75.83,75.83,75.83,75.83,75.83,0.0,35.030000000000015,35.029999999999994,35.03000000000001,35.03000000000001,35.030000000000015,9.39959687352353e-15,3.32,2.32,2.8175,2.8150000000000004,2.32,0.3745914441094457
1 -> 2,1.9430100000000008,1.943009999999999,1.94301,1.9430100000000001,1.9430100000000008,8.005932084973442e-16,75.83,75.83,75.83,75.83,75.83,0.0,35.030000000000015,35.029999999999994,35.03000000000001,35.03000000000001,35.030000000000015,9.39959687352353e-15,3.32,2.32,2.8175,2.8150000000000004,2.32,0.3745914441094457
1 -> 2,1.9327670000000008,1.932766999999999,1.932767,1.9327670000000001,1.9327670000000008,8.3820000221454525e-16,75.83,75.83,75.83,75.83,75.83,0.0,35.030000000000015,35.029999999999994,35.03000000000001,35.03000000000001,35.030000000000015,9.39959687352353e-15,3.55,2.99,3.355,3.44,2.99,0.22466641938660956
1 -> 2,1.9327670000000008,1.932766999999999,1.932767,1.9327670000000001,1.9327670000000008,8.3820000221454525e-16,75.83,75.83,75.83,75.83,75.83,0.0,35.030000000000015,35.029999999999994,35.03000000000001,35.03000000000001,35.030000000000015,9.39959687352353e-15,3.55,2.99,3.355,3.44,2.99,0.22466641938660956
1 -> 2,1.9327670000000008,1.932766999999999,1.932767,1.9327670000000001,1.9327670000000008,8.3820000221454525e-16,75.83,75.83,75.83,75.83,75.83,0.0,35.030000000000015,35.029999999999994,35.03000000000001,35.03000000000001,35.030000000000015,9.39959687352353e-15,2.54,1.59,2.0025,1.94,1.59,0.36217226564164184
1 -> 2,1.9327670000000008,1.932766999999999,1.932767,1.9327670000000001,1.9327670000000008,8.3820000221454525e-16,75.83,75.83,75.83,75.83,75.83,0.0,35.030000000000015,35.029999999999994,35.03000000000001,35.03000000000001,35.030000000000015,9.39959687352353e-15,2.54,1.59,2.0025,1.94,1.59,0.36217226564164184
1 -> 2,1.9327670000000008,1.932766999999999,1.932767,1.9327670000000001,1.9327670000000008,8.3820000221454525e-16,75.83,75.83,75.83,75.83,75.83,0.0,35.030000000000015,35.029999999999994,35.03000000000001,35.03000000000001,35.030000000000015,9.39959687352353e-15,2.68,1.61,2.0925000000000002,2.04,1.61,0.4072698736710095
1 -> 2,1.9327670000000008,1.932766999999999,1.932767,1.9327670000000001,1.9327670000000008,8.3820000221454525e-16,75.83,75.83,75.83,75.83,75.83,0.0,35.030000000000015,35.029999999999994,35.03000000000001,35.03000000000001,35.030000000000015,9.39959687352353e-15,2.68,1.61,2.0925000000000002,2.04,1.61,0.4072698736710095
1 -> 2,1.9327670000000008,1.932766999999999,1.932767,1.9327670000000001,1.9327670000000008,8.3820000221454525e-16,75.83,75.83,75.83,75.83,75.83,0.0,35.030000000000015,35.029999999999994,35.03000000000001,35.03000000000001,35.030000000000015,9.39959687352353e-15,2.97,1.79,2.5575,2.735,1.79,0.4759923843928598
1 -> 2,1.9327670000000008,1.932766999999999,1.932767,1.9327670000000001,1.9327670000000008,8.3820000221454525e-16,75.83,75.83,75.83,75.83,75.83,0.0,35.030000000000015,35.029999999999994,35.03000000000001,35.03000000000001,35.030000000000015,9.39959687352353e-15,2.97,1.79,2.5575,2.735,1.79,0.4759923843928598
1 -> 2,1.9289250000000009,1.9289249999999998,1.9289250000000007,1.9289250000000009,1.9289250000000009,4.710277376051325e-16,75.83,75.83,75.83,75.83,75.83,0.0,35.030000000000015,35.029999999999994,35.03000000000001,35.03000000000001,35.030000000000015,9.39959687352353e-15,0.91,-1.02,-0.14500000000000002,-0.23500000000000004,-1.02,0.7256204241888455
1 -> 2,1.9289250000000009,1.9289249999999998,1.9289250000000007,1.9289250000000009,1.9289250000000009,4.710277376051325e-16,75.83,75.83,75.83,75.83,75.83,0.0,35.030000000000015,35.029999999999994,35.03000000000001,35.03000000000001,35.030000000000015,9.39959687352353e-15,0.91,-1.02,-0.14500000000000002,-0.23500000000000004,-1.02,0.7256204241888455
1 -> 2,1.9289250000000009,1.9289249999999998,1.9289250000000007,1.9289250000000009,1.9289250000000009,4.710277376051325e-16,75.83,75.83,75.83,75.83,75.83,0.0,35.030000000000015,35.029999999999994,35.03000000000001,35.03000000000001,35.030000000000015,9.39959687352353e-15,-1.35,-2.01,-1.7,-1.7200000000000002,-2.01,0.24677925358506123
1 -> 2,1.9289250000000009,1.9289249999999998,1.9289250000000007,1.9289250000000009,1.9289250000000009,4.710277376051325e-16,75.83,75.83,75.83,75.83,75.83,0.0,35.030000000000015,35.029999999999994,35.03000000000001,35.03000000000001,35.030000000000015,9.39959687352353e-15,-1.35,-2.01,-1.7,-1.7200000000000002,-2.01,0.24677925358506123
1 -> 2,1.9289250000000009,1.9289249999999998,1.9289250000000007,1.9289250000000009,1.9289250000000009,4.710277376051325e-16,75.83,75.83,75.83,75.83,75.83,0.0,35.030000000000015,35.029999999999994,35.03000000000001,35.03000000000001,35.030000000000015,9.39959687352353e-15,-2.15,-3.19,-2.5749999999999997,-2.48,-3.19,0.3962638010214913
1 -> 2,1.9289250000000009,1.9289249999999998,1.9289250000000007,1.9289250000000009,1.9289250000000009,4.710277376051325e-16,75.83,75.83,75.83,75.83,75.83,0.0,35.030000000000015,35.029999999999994,35.03000000000001,35.03000000000001,35.030000000000015,9.39959687352353e-15,-2.15,-3.19,-2.5749999999999997,-2.48,-3.19,0.3962638010214913
1 -> 2,1.9289250000000009,1.9289249999999998,1.9289250000000007,1.9289250000000009,1.9289250000000009,4.710277376051325e-16,75.83,75.83,75.83,75.83,75.83,0.0,35.030000000000015,35.029999999999994,35.03000000000001,35.03000000000001,35.030000000000015,9.39959687352353e-15,-4.0,-6.33,-5.27,-5.375,-6.33,0.8855789067045352
1 -> 2,1.9289250000000009,1.9289249999999998,1.9289250000000007,1.9289250000000009,1.9289250000000009,4.710277376051325e-16,75.83,75.83,75.83,75.83,75.83,0.0,35.030000000000015,35.029999999999994,35.03000000000001,35.03000000000001,35.030000000000015,9.39959687352353e-15,-4.0,-6.33,-5.27,-5.375,-6.33,0.8855789067045352
1 -> 2,1.927645000000001,1.9276449999999994,1.9276450000000005,1.9276450000000007,1.927645000000001,6.377745716588144e-16,78.0,78.0,78.0,78.0,78.0,0.0,35.030000000000015,35.029999999999994,35.03000000000001,35.03000000000001,35.030000000000015,9.39959687352353e-15,-3.03,-6.31,-4.8925,-5.115,-6.31,1.248846968207074
1 -> 2,1.927645000000001,1.9276449999999994,1.9276450000000005,1.9276450000000007,1.927645000000001,6.377745716588144e-16,78.0,78.0,78.0,78.0,78.0,0.0,35.030000000000015,35.029999999999994,35.03000000000001,35.03000000000001,35.030000000000015,9.39959687352353e-15,-3.03,-6.31,-4.8925,-5.115,-6.31,1.248846968207074
1 -> 2,1.927645000000001,1.9276449999999994,1.9276450000000005,1.9276450000000007,1.927645000000001,6.377745716588144e-16,78.0,78.0,78.0,78.0,78.0,0.0,35.030000000000015,35.029999999999994,35.03000000000001,35.03000000000001,35.030000000000015,9.39959687352353e-15,2.67,-1.36,0.7999999999999999,0.945,-1.36,1.5141499265264322
1 -> 2,1.927645000000001,1.9276449999999994,1.9276450000000005,1.9276450000000007,1.927645000000001,6.377745716588144e-16,78.0,78.0,78.0,78.0,78.0,0.0,35.030000000000015,35.029999999999994,35.03000000000001,35.03000000000001,35.030000000000015,9.39959687352353e-15,2.67,-1.36,0.7999999999999999,0.945,-1.36,1.5141499265264322
1 -> 2,1.927645000000001,1.9276449999999994,1.9276450000000005,1.9276450000000007,1.927645000000001,6.377745716588144e-16,78.0,78.0,78.0,78.0,78.0,0.0,35.030000000000015,35.029999999999994,35.03000000000001,35.03000000000001,35.030000000000015,9.39959687352353e-15,3.37,2.81,3.145,3.2,2.81,0.20742468512691545
1 -> 2,1.927645000000001,1.9276449999999994,1.9276450000000005,1.9276450000000007,1.927645000000001,6.377745716588144e-16,78.0,78.0,78.0,78.0,78.0,0.0,35.030000000000015,35.029999999999994,35.03000000000001,35.03000000000001,35.030000000000015,9.39959687352353e-15,3.37,2.81,3.145,3.2,2.81,0.20742468512691545
1 -> 2,1.927645000000001,1.9276449999999994,1.9276450000000005,1.9276450000000007,1.927645000000001,6.377745716588144e-16,78.0,78.0,78.0,78.0,78.0,0.0,35.030000000000015,35.029999999999994,35.03000000000001,35.03000000000001,35.030000000000015,9.39959687352353e-15,2.69,2.4,2.5275,2.51,2.4,0.10425329730996521
1 -> 2,1.927645000000001,1.9276449999999994,1.9276450000000005,1.9276450000000007,1.927645000000001,6.377745716588144e-16,78.0,78.0,78.0,78.0,78.0,0.0,35.030000000000015,35.029999999999994,35.03000000000001,35.03000000000001,35.030000000000015,9.39959687352353e-15,2.69,2.4,2.5275,2.51,2.4,0.10425329730996521
1 -> 2,1.9289250000000009,1.9289249999999998,1.9289250000000007,1.9289250000000009,1.9289250000000009,4.710277376051325e-16,78.0,78.0,78.0,78.0,78.0,0.0,35.030000000000015,35.029999999999994,35.03000000000001,35.03000000000001,35.030000000000015,9.39959687352353e-15,3.34,2.89,3.1075,3.1,2.89,0.16482945731876925
1 -> 2,1.9289250000000009,1.9289249999999998,1.9289250000000007,1.9289250000000009,1.9289250000000009,4.710277376051325e-16,78.0,78.0,78.0,78.0,78.0,0.0,35.030000000000015,35.029999999999994,35.03000000000001,35.03000000000001,35.030000000000015,9.39959687352353e-15,3.34,2.89,3.1075,3.1,2.89,0.16482945731876925
1 -> 2,1.9289250000000009,1.9289249999999998,1.9289250000000007,1.9289250000000009,1.9289250000000009,4.710277376051325e-16,78.0,78.0,78.0,78.0,78.0,0.0,35.030000000000015,35.029999999999994,35.03000000000001,35.03000000000001,35.030000000000015,9.39959687352353e-15,4.13,3.61,3.94,4.01,3.61,0.20676073128135328
1 -> 2,1.9289250000000009,1.9289249999999998,1.9289250000000007,1.9289250000000009,1.9289250000000009,4.710277376051325e-16,78.0,78.0,78.0,78.0,78.0,0.0,35.030000000000015,35.029999999999994,35.03000000000001,35.03000000000001,35.030000000000015,9.39959687352353e-15,4.13,3.61,3.94,4.01,3.61,0.20676073128135328
1 -> 2,1.9289250000000009,1.9289249999999998,1.9289250000000007,1.9289250000000009,1.9289250000000009,4.710277376051325e-16,78.0,78.0,78.0,78.0,78.0,0.0,35.030000000000015,35.029999999999994,35.03000000000001,35.03000000000001,35.030000000000015,9.39959687352353e-15,3.8,2.35,3.0599999999999996,3.045,2.35,0.5460311346434377
1 -> 2,1.9289250000000009,1.9289249999999998,1.9289250000000007,1.9289250000000009,1.9289250000000009,4.710277376051325e-16,78.0,78.0,78.0,78.0,78.0,0.0,35.030000000000015,35.029999999999994,35.03000000000001,35.03000000000001,35.030000000000015,9.39959687352353e-15,3.8,2.35,3.0599999999999996,3.045,2.35,0.5460311346434377
1 -> 2,1.9289250000000009,1.9289249999999998,1.9289250000000007,1.9289250000000009,1.9289250000000009,4.710277376051325e-16,78.0,78.0,78.0,78.0,78.0,0.0,35.030000000000015,35.029999999999994,35.03000000000001,35.03000000000001,35.030000000000015,9.39959687352353e-15,2.06,1.35,1.73,1.755,1.35,0.2629638758460941
1 -> 2,1.9289250000000009,1.9289249999999998,1.9289250000000007,1.9289250000000009,1.9289250000000009,4.710277376051325e-16,78.0,78.0,78.0,78.0,78.0,0.0,35.030000000000015,35.029999999999994,35.03000000000001,35.03000000000001,35.030000000000015,9.39959687352353e-15,2.06,1.35,1.73,1.755,1.35,0.2629638758460941
1 -> 2,1.930206000000001,1.9302059999999999,1.9302060000000008,1.930206000000001,1.930206000000001,4.710277376051325e-16,78.0,78.0,78.0,78.0,78.0,0.0,35.030000000000015,35.029999999999994,35.03000000000001,35.03000000000001,35.030000000000015,9.39959687352353e-15,0.94,-0.41,0.2575,0.25,-0.41,0.5043002577829997
1 -> 2,1.930206000000001,1.9302059999999999,1.9302060000000008,1.930206000000001,1.930206000000001,4.710277376051325e-16,78.0,78.0,78.0,78.0,78.0,0.0,35.030000000000015,35.029999999999994,35.03000000000001,35.03000000000001,35.030000000000015,9.39959687352353e-15,0.94,-0.41,0.2575,0.25,-0.41,0.5043002577829997
1 -> 2,1.930206000000001,1.9302059999999999,1.9302060000000008,1.930206000000001,1.930206000000001,4.710277376051325e-16,78.0,78.0,78.0,78.0,78.0,0.0,35.030000000000015,35.029999999999994,35.03000000000001,35.03000000000001,35.030000000000015,9.39959687352353e-15,-0.84,-2.57,-1.665,-1.625,-2.57,0.6474758682761852
1 -> 2,1.930206000000001,1.9302059999999999,1.9302060000000008,1.930206000000001,1.930206000000001,4.710277376051325e-16,78.0,78.0,78.0,78.0,78.0,0.0,35.030000000000015,35.029999999999994,35.03000000000001,35.03000000000001,35.030000000000015,9.39959687352353e-15,-0.84,-2.57,-1.665,-1.625,-2.57,0.6474758682761852
1 -> 2,1.930206000000001,1.9302059999999999,1.9302060000000008,1.930206000000001,1.930206000000001,4.710277376051325e-16,78.0,78.0,78.0,78.0,78.0,0.0,35.030000000000015,35.029999999999994,35.03000000000001,35.03000000000001,35.030000000000015,9.39959687352353e-15,-3.21,-4.39,-3.8724999999999996,-3.945,-4.39,0.44532993386926045
1 -> 2,1.930206000000001,1.9302059999999999,1.9302060000000008,1.930206000000001,1.930206000000001,4.710277376051325e-16,78.0,78.0,78.0,78.0,78.0,0.0,35.030000000000015,35.029999999999994,35.03000000000001,35.03000000000001,35.030000000000015,9.39959687352353e-15,-3.21,-4.39,-3.8724999999999996,-3.945,-4.39,0.44532993386926045
1 -> 2,1.930206000000001,1.9302059999999999,1.9302060000000008,1.930206000000001,1.930206000000001,4.710277376051325e-16,78.0,78.0,78.0,78.0,78.0,0.0,35.030000000000015,35.029999999999994,35.03000000000001,35.03000000000001,35.030000000000015,9.39959687352353e-15,-4.6,-5.35,-4.9725,-4.970000000000001,-5.35,0.28305255695718423
1 -> 2,1.930206000000001,1.9302059999999999,1.9302060000000008,1.930206000000001,1.930206000000001,4.710277376051325e-16,78.0,78.0,78.0,78.0,78.0,0.0,35.030000000000015,35.029999999999994,35.03000000000001,35.03000000000001,35.030000000000015,9.39959687352353e-15,-4.6,-5.35,-4.9725,-4.970000000000001,-5.35,0.28305255695718423
1 -> 2,1.931486000000001,1.931485999999999,1.9314859999999998,1.931486,1.931486000000001,9.61481343191782e-16,78.0,78.0,78.0,78.0,78.0,0.0,35.030000000000015,35.029999999999994,35.03000000000001,35.03000000000001,35.030000000000015,9.39959687352353e-15,-3.65,-5.42,-4.705,-4.875,-5.42,0.6833922738808216
1 -> 2,1.931486000000001,1.931485999999999,1.9314859999999998,1.931486,1.931486000000001,9.61481343191782e-16,78.0,78.0,78.0,78.0,78.0,0.0,35.030000000000015,35.029999999999994,35.03000000000001,35.03000000000001,35.030000000000015,9.39959687352353e-15,-3.65,-5.42,-4.705,-4.875,-5.42,0.6833922738808216
1 -> 2,1.931486000000001,1.931485999999999,1.9314859999999998,1.931486,1.931486000000001,9.61481343191782e-16,78.0,78.0,78.0,78.0,78.0,0.0,35.030000000000015,35.029999999999994,35.03000000000001,35.03000000000001,35.030000000000015,9.39959687352353e-15,0.26,-2.55,-1.0699999999999998,-0.995,-2.55,1.0514038234665117
1 -> 2,1.931486000000001,1.931485999999999,1.9314859999999998,1.931486,1.931486000000001,9.61481343191782e-16,78.0,78.0,78.0,78.0,78.0,0.0,35.030000000000015,35.029999999999994,35.03000000000001,35.03000000000001,35.030000000000015,9.39959687352353e-15,0.26,-2.55,-1.0699999999999998,-0.995,-2.55,1.0514038234665117
1 -> 2,1.931486000000001,1.931485999999999,1.9314859999999998,1.931486,1.931486000000001,9.61481343191782e-16,78.0,78.0,78.0,78.0,78.0,0.0,35.030000000000015,35.029999999999994,35.03000000000001,35.03000000000001,35.030000000000015,9.39959687352353e-15,2.53,0.93,1.7725,1.815,0.93,0.5996822075066092
1 -> 2,1.931486000000001,1.931485999999999,1.9314859999999998,1.931486,1.931486000000001,9.61481343191782e-16,78.0,78.0,78.0,78.0,78.0,0.0,35.030000000000015,35.029999999999994,35.03000000000001,35.03000000000001,35.030000000000015,9.39959687352353e-15,2.53,0.93,1.7725,1.815,0.93,0.5996822075066092
1 -> 2,1.931486000000001,1.931485999999999,1.9314859999999998,1.931486,1.931486000000001,9.61481343191782e-16,78.0,78.0,78.0,78.0,78.0,0.0,35.030000000000015,35.029999999999994,35.03000000000001,35.03000000000001,35.030000000000015,9.39959687352353e-15,2.81,2.38,2.6550000000000002,2.715,2.38,0.1718284027743959
1 -> 2,1.931486000000001,1.931485999999999,1.9314859999999998,1.931486,1.931486000000001,9.61481343191782e-16,78.0,78.0,78.0,78.0,78.0,0.0,35.030000000000015,35.029999999999994,35.03000000000001,35.03000000000001,35.030000000000015,9.39959687352353e-15,2.81,2.38,2.6550000000000002,2.715,2.38,0.1718284027743959
1 -> 2,1.9289250000000009,1.9289249999999998,1.9289250000000007,1.9289250000000009,1.9289250000000009,4.710277376051325e-16,79.75,79.75,79.75,79.75,79.75,0.0,35.030000000000015,35.029999999999994,35.03000000000001,35.03000000000001,35.030000000000015,9.39959687352353e-15,2.65,2.17,2.34,2.27,2.17,0.19209372712298545
1 -> 2,1.9289250000000009,1.9289249999999998,1.9289250000000007,1.9289250000000009,1.9289250000000009,4.710277376051325e-16,79.75,79.75,79.75,79.75,79.75,0.0,35.030000000000015,35.029999999999994,35.03000000000001,35.03000000000001,35.030000000000015,9.39959687352353e-15,2.65,2.17,2.34,2.27,2.17,0.19209372712298545
1 -> 2,1.9289250000000009,1.9289249999999998,1.9289250000000007,1.9289250000000009,1.9289250000000009,4.710277376051325e-16,79.75,79.75,79.75,79.75,79.75,0.0,35.030000000000015,35.029999999999994,35.03000000000001,35.03000000000001,35.030000000000015,9.39959687352353e-15,3.04,2.5,2.8400000000000003,2.91,2.5,0.20383817110639513
1 -> 2,1.9289250000000009,1.9289249999999998,1.9289250000000007,1.9289250000000009,1.9289250000000009,4.710277376051325e-16,79.75,79.75,79.75,79.75,79.75,0.0,35.030000000000015,35.029999999999994,35.03000000000001,35.03000000000001,35.030000000000015,9.39959687352353e-15,3.04,2.5,2.8400000000000003,2.91,2.5,0.20383817110639513
1 -> 2,1.9289250000000009,1.9289249999999998,1.9289250000000007,1.9289250000000009,1.9289250000000009,4.710277376051325e-16,79.75,79.75,79.75,79.75,79.75,0.0,35.030000000000015,35.029999999999994,35.03000000000001,35.03000000000001,35.030000000000015,9.39959687352353e-15,2.0,1.39,1.6099999999999999,1.525,1.39,0.2350531854708632
1 -> 2,1.9289250000000009,1.9289249999999998,1.9289250000000007,1.9289250000000009,1.9289250000000009,4.710277376051325e-16,79.75,79.75,79.75,79.75,79.75,0.0,35.030000000000015,35.029999999999994,35.03000000000001,35.03000000000001,35.030000000000015,9.39959687352353e-15,2.0,1.39,1.6099999999999999,1.525,1.39,0.2350531854708632
1 -> 2,1.9289250000000009,1.9289249999999998,1.9289250000000007,1.9289250000000009,1.9289250000000009,4.710277376051325e-16,79.75,79.75,79.75,79.75,79.75,0.0,35.030000000000015,35.029999999999994,35.03000000000001,35.03000000000001,35.030000000000015,9.39959687352353e-15,2.11,1.74,1.9549999999999998,1.9849999999999999,1.74,0.13536986370680879
1 -> 2,1.9289250000000009,1.9289249999999998,1.9289250000000007,1.9289250000000009,1.9289250000000009,4.710277376051325e-16,79.75,79.75,79.75,79.75,79.75,0.0,35.030000000000015,35.029999999999994,35.03000000000001,35.03000000000001,35.030000000000015,9.39959687352353e-15,2.11,1.74,1.9549999999999998,1.9849999999999999,1.74,0.13536986370680879
1 -> 2,1.9263640000000009,1.926363999999999,1.9263640000000002,1.9263640000000004,1.9263640000000009,7.28021923224409e-16,79.75,79.75,79.75,79.75,79.75,0.0,35.030000000000015,35.029999999999994,35.03000000000001,35.03000000000001,35.030000000000015,9.39959687352353e-15,1.62,0.56,1.0625,1.035,0.56,0.3978928875966496
1 -> 2,1.9263640000000009,1.926363999999999,1.9263640000000002,1.9263640000000004,1.9263640000000009,7.28021923224409e-16,79.75,79.75,79.75,79.75,79.75,0.0,35.030000000000015,35.029999999999994,35.03000000000001,35.03000000000001,35.030000000000015,9.39959687352353e-15,1.62,0.56,1.0625,1.035,0.56,0.3978928875966496
1 -> 2,1.9263640000000009,1.926363999999999,1.9263640000000002,1.9263640000000004,1.9263640000000009,7.28021923224409e-16,79.75,79.75,79.75,79.75,79.75,0.0,35.030000000000015,35.029999999999994,35.03000000000001,35.03000000000001,35.030000000000015,9.39959687352353e-15,0.24,-1.75,-0.655,-0.555,-1.75,0.7490827724624296
1 -> 2,1.9263640000000009,1.926363999999999,1.9263640000000002,1.9263640000000004,1.9263640000000009,7.28021923224409e-16,79.75,79.75,79.75,79.75,79.75,0.0,35.030000000000015,35.029999999999994,35.03000000000001,35.03000000000001,35.030000000000015,9.39959687352353e-15,0.24,-1.75,-0.655,-0.555,-1.75,0.7490827724624296
1 -> 2,1.9263640000000009,1.926363999999999,1.9263640000000002,1.9263640000000004,1.9263640000000009,7.28021923224409e-16,79.75,79.75,79.75,79.75,79.75,0.0,35.030000000000015,35.029999999999994,35.03000000000001,35.03000000000001,35.030000000000015,9.39959687352353e-15,-2.67,-4.38,-3.6375,-3.75,-4.38,0.64824281716036
1 -> 2,1.9263640000000009,1.926363999999999,1.9263640000000002,1.9263640000000004,1.9263640000000009,7.28021923224409e-16,79.75,79.75,79.75,79.75,79.75,0.0,35.030000000000015,35.029999999999994,35.03000000000001,35.03000000000001,35.030000000000015,9.39959687352353e-15,-2.67,-4.38,-3.6375,-3.75,-4.38,0.64824281716036
1 -> 2,1.9263640000000009,1.926363999999999,1.9263640000000002,1.9263640000000004,1.9263640000000009,7.28021923224409e-16,79.75,79.75,79.75,79.75,79.75,0.0,35.030000000000015,35.029999999999994,35.03000000000001,35.03000000000001,35.030000000000015,9.39959687352353e-15,-4.55,-4.79,-4.6925,-4.715,-4.79,0.09337424698491553
1 -> 2,1.9263640000000009,1.926363999999999,1.9263640000000002,1.9263640000000004,1.9263640000000009,7.28021923224409e-16,79.75,79.75,79.75,79.75,79.75,0.0,35.030000000000015,35.029999999999994,35.03000000000001,35.03000000000001,35.030000000000015,9.39959687352353e-15,-4.55,-4.79,-4.6925,-4.715,-4.79,0.09337424698491553
1 -> 2,1.9186820000000009,1.918681999999999,1.918682,1.9186820000000002,1.9186820000000009,8.005932084973442e-16,79.75,79.75,79.75,79.75,79.75,0.0,35.030000000000015,35.029999999999994,35.03000000000001,35.03000000000001,35.030000000000015,9.39959687352353e-15,-2.27,-4.61,-3.5775,-3.715,-4.61,0.8862103305649287
1 -> 2,1.9186820000000009,1.918681999999999,1.918682,1.9186820000000002,1.9186820000000009,8.005932084973442e-16,79.75,79.75,79.75,79.75,79.75,0.0,35.030000000000015,35.029999999999994,35.03000000000001,35.03000000000001,35.030000000000015,9.39959687352353e-15,-2.27,-4.61,-3.5775,-3.715,-4.61,0.8862103305649287
1 -> 2,1.9186820000000009,1.918681999999999,1.918682,1.9186820000000002,1.9186820000000009,8.005932084973442e-16,79.75,79.75,79.75,79.75,79.75,0.0,35.030000000000015,35.029999999999994,35.03000000000001,35.03000000000001,35.030000000000015,9.39959687352353e-15,0.97,-1.18,0.010000000000000009,0.12499999999999999,-1.18,0.8087335778858202
1 -> 2,1.9186820000000009,1.918681999999999,1.918682,1.9186820000000002,1.9186820000000009,8.005932084973442e-16,79.75,79.75,79.75,79.75,79.75,0.0,35.030000000000015,35.029999999999994,35.03000000000001,35.03000000000001,35.030000000000015,9.39959687352353e-15,0.97,-1.18,0.010000000000000009,0.12499999999999999,-1.18,0.8087335778858202
1 -> 2,1.9186820000000009,1.918681999999999,1.918682,1.9186820000000002,1.9186820000000009,8.005932084973442e-16,79.75,79.75,79.75,79.75,79.75,0.0,35.030000000000015,35.029999999999994,35.03000000000001,35.03000000000001,35.030000000000015,9.39959687352353e-15,2.73,1.35,2.0125,1.985,1.35,0.5161576793965192
1 -> 2,1.9186820000000009,1.918681999999999,1.918682,1.9186820000000002,1.9186820000000009,8.005932084973442e-16,79.75,79.75,79.75,79.75,79.75,0.0,35.030000000000015,35.029999999999994,35.03000000000001,35.03000000000001,35.030000000000015,9.39959687352353e-15,2.73,1.35,2.0125,1.985,1.35,0.5161576793965192
1 -> 2,1.9186820000000009,1.918681999999999,1.918682,1.9186820000000002,1.9186820000000009,8.005932084973442e-16,79.75,79.75,79.75,79.75,79.75,0.0,35.030000000000015,35.029999999999994,35.03000000000001,35.03000000000001,35.030000000000015,9.39959687352353e-15,3.36,3.07,3.225,3.235,3.07,0.11926860441876562
1 -> 2,1.9186820000000009,1.918681999999999,1.918682,1.9186820000000002,1.9186820000000009,8.005932084973442e-16,79.75,79.75,79.75,79.75,79.75,0.0,35.030000000000015,35.029999999999994,35.03000000000001,35.03000000000001,35.030000000000015,9.39959687352353e-15,3.36,3.07,3.225,3.235,3.07,0.11926860441876562
1 -> 2,1.925084000000001,1.9250839999999996,1.9250840000000005,1.9250840000000005,1.925084000000001,6.377745716588144e-16,79.75,79.75,79.75,79.75,79.75,0.0,35.030000000000015,35.029999999999994,35.03000000000001,35.03000000000001,35.030000000000015,9.39959687352353e-15,2.77,2.49,2.6075,2.585,2.49,0.10638961415476601
1 -> 2,1.925084000000001,1.9250839999999996,1.9250840000000005,1.9250840000000005,1.925084000000001,6.377745716588144e-16,79.75,79.75,79.75,79.75,79.75,0.0,35.030000000000015,35.029999999999994,35.03000000000001,35.03000000000001,35.030000000000015,9.39959687352353e-15,2.77,2.49,2.6075,2.585,2.49,0.10638961415476601
1 -> 2,1.925084000000001,1.9250839999999996,1.9250840000000005,1.9250840000000005,1.925084000000001,6.377745716588144e-16,79.75,79.75,79.75,79.75,79.75,0.0,35.030000000000015,35.029999999999994,35.03000000000001,35.03000000000001,35.030000000000015,9.39959687352353e-15,3.33,2.88,3.1575,3.21,2.88,0.17682972035266026
1 -> 2,1.925084000000001,1.9250839999999996,1.9250840000000005,1.9250840000000005,1.925084000000001,6.377745716588144e-16,79.75,79.75,79.75,79.75,79.75,0.0,35.030000000000015,35.029999999999994,35.03000000000001,35.03000000000001,35.030000000000015,9.39959687352353e-15,3.33,2.88,3.1575,3.21,2.88,0.17682972035266026
1 -> 2,1.925084000000001,1.9250839999999996,1.9250840000000005,1.9250840000000005,1.925084000000001,6.377745716588144e-16,79.75,79.75,79.75,79.75,79.75,0.0,35.030000000000015,35.029999999999994,35.03000000000001,35.03000000000001,35.030000000000015,9.39959687352353e-15,3.28,2.99,3.1350000000000002,3.135,2.99,0.10965856099730639
1 -> 2,1.925084000000001,1.9250839999999996,1.9250840000000005,1.9250840000000005,1.925084000000001,6.377745716588144e-16,79.75,79.75,79.75,79.75,79.75,0.0,35.030000000000015,35.029999999999994,35.03000000000001,35.03000000000001,35.030000000000015,9.39959687352353e-15,3.28,2.99,3.1350000000000002,3.135,2.99,0.10965856099730639
1 -> 2,1.925084000000001,1.9250839999999996,1.9250840000000005,1.9250840000000005,1.925084000000001,6.377745716588144e-16,79.75,79.75,79.75,79.75,79.75,0.0,35.030000000000015,35.029999999999994,35.03000000000001,35.03000000000001,35.030000000000015,9.39959687352353e-15,2.88,2.09,2.535,2.585,2.09,0.2971952220342716
1 -> 2,1.925084000000001,1.9250839999999996,1.9250840000000005,1.9250840000000005,1.925084000000001,6.377745716588144e-16,79.75,79.75,79.75,79.75,79.75,0.0,35.030000000000015,35.029999999999994,35.03000000000001,35.03000000000001,35.030000000000015,9.39959687352353e-15,2.88,2.09,2.535,2.585,2.09,0.2971952220342716
1 -> 2,1.941729000000001,1.9417289999999992,1.9417290000000003,1.9417290000000005,1.941729000000001,7.611305586242616e-16,81.11,81.11,81.11,81.11,81.11,0.0,35.000000000000014,34.99999999999999,35.0,35.0,34.99999999999999,1.1234667099445444e-14,1.64,0.35,0.9724999999999999,0.95,0.35,0.4824093179033755
1 -> 2,1.941729000000001,1.9417289999999992,1.9417290000000003,1.9417290000000005,1.941729000000001,7.611305586242616e-16,81.11,81.11,81.11,81.11,81.11,0.0,35.000000000000014,34.99999999999999,35.0,35.0,34.99999999999999,1.1234667099445444e-14,1.64,0.35,0.9724999999999999,0.95,0.35,0.4824093179033755
1 -> 2,1.941729000000001,1.9417289999999992,1.9417290000000003,1.9417290000000005,1.941729000000001,7.611305586242616e-16,81.11,81.11,81.11,81.11,81.11,0.0,35.000000000000014,34.99999999999999,35.0,35.0,34.99999999999999,1.1234667099445444e-14,0.01,-1.55,-0.71,-0.65,-1.55,0.5844655678480983
1 -> 2,1.941729000000001,1.9417289999999992,1.9417290000000003,1.9417290000000005,1.941729000000001,7.611305586242616e-16,81.11,81.11,81.11,81.11,81.11,0.0,35.000000000000014,34.99999999999999,35.0,35.0,34.99999999999999,1.1234667099445444e-14,0.01,-1.55,-0.71,-0.65,-1.55,0.5844655678480983
1 -> 2,1.941729000000001,1.9417289999999992,1.9417290000000003,1.9417290000000005,1.941729000000001,7.611305586242616e-16,81.11,81.11,81.11,81.11,81.11,0.0,35.000000000000014,34.99999999999999,35.0,35.0,34.99999999999999,1.1234667099445444e-14,-2.23,-3.3,-2.8724999999999996,-2.98,-3.3,0.4133627341693975
1 -> 2,1.941729000000001,1.9417289999999992,1.9417290000000003,1.9417290000000005,1.941729000000001,7.611305586242616e-16,81.11,81.11,81.11,81.11,81.11,0.0,35.000000000000014,34.99999999999999,35.0,35.0,34.99999999999999,1.1234667099445444e-14,-2.23,-3.3,-2.8724999999999996,-2.98,-3.3,0.4133627341693975
1 -> 2,1.941729000000001,1.9417289999999992,1.9417290000000003,1.9417290000000005,1.941729000000001,7.611305586242616e-16,81.11,81.11,81.11,81.11,81.11,0.0,35.000000000000014,34.99999999999999,35.0,35.0,34.99999999999999,1.1234667099445444e-14,-3.35,-4.24,-3.7175,-3.64,-4.24,0.34098203765007923
1 -> 2,1.941729000000001,1.9417289999999992,1.9417290000000003,1.9417290000000005,1.941729000000001,7.611305586242616e-16,81.11,81.11,81.11,81.11,81.11,0.0,35.000000000000014,34.99999999999999,35.0,35.0,34.99999999999999,1.1234667099445444e-14,-3.35,-4.24,-3.7175,-3.64,-4.24,0.34098203765007923
1 -> 2,1.9660570000000008,1.9660569999999995,1.9660570000000002,1.9660570000000002,1.9660570000000008,6.181460191301304e-16,81.11,81.11,81.11,81.11,81.11,0.0,35.000000000000014,34.99999999999999,35.0,35.0,34.99999999999999,1.1234667099445444e-14,-4.02,-4.81,-4.5175,-4.62,-4.81,0.29827629808618733
1 -> 2,1.9660570000000008,1.9660569999999995,1.9660570000000002,1.9660570000000002,1.9660570000000008,6.181460191301304e-16,81.11,81.11,81.11,81.11,81.11,0.0,35.000000000000014,34.99999999999999,35.0,35.0,34.99999999999999,1.1234667099445444e-14,-4.02,-4.81,-4.5175,-4.62,-4.81,0.29827629808618733
1 -> 2,1.9660570000000008,1.9660569999999995,1.9660570000000002,1.9660570000000002,1.9660570000000008,6.181460191301304e-16,81.11,81.11,81.11,81.11,81.11,0.0,35.000000000000014,34.99999999999999,35.0,35.0,34.99999999999999,1.1234667099445444e-14,-1.01,-3.26,-2.1075,-2.08,-3.26,0.8378655918463295
1 -> 2,1.9660570000000008,1.9660569999999995,1.9660570000000002,1.9660570000000002,1.9660570000000008,6.181460191301304e-16,81.11,81.11,81.11,81.11,81.11,0.0,35.000000000000014,34.99999999999999,35.0,35.0,34.99999999999999,1.1234667099445444e-14,-1.01,-3.26,-2.1075,-2.08,-3.26,0.8378655918463295
1 -> 2,1.9660570000000008,1.9660569999999995,1.9660570000000002,1.9660570000000002,1.9660570000000008,6.181460191301304e-16,81.11,81.11,81.11,81.11,81.11,0.0,35.000000000000014,34.99999999999999,35.0,35.0,34.99999999999999,1.1234667099445444e-14,2.05,-0.29,0.8999999999999999,0.92,-0.29,0.8768694315575153
1 -> 2,1.9660570000000008,1.9660569999999995,1.9660570000000002,1.9660570000000002,1.9660570000000008,6.181460191301304e-16,81.11,81.11,81.11,81.11,81.11,0.0,35.000000000000014,34.99999999999999,35.0,35.0,34.99999999999999,1.1234667099445444e-14,2.05,-0.29,0.8999999999999999,0.92,-0.29,0.8768694315575153
1 -> 2,1.9660570000000008,1.9660569999999995,1.9660570000000002,1.9660570000000002,1.9660570000000008,6.181460191301304e-16,81.11,81.11,81.11,81.11,81.11,0.0,35.000000000000014,34.99999999999999,35.0,35.0,34.99999999999999,1.1234667099445444e-14,2.72,2.37,2.56,2.575,2.37,0.12864680330268613
1 -> 2,1.9660570000000008,1.9660569999999995,1.9660570000000002,1.9660570000000002,1.9660570000000008,6.181460191301304e-16,81.11,81.11,81.11,81.11,81.11,0.0,35.000000000000014,34.99999999999999,35.0,35.0,34.99999999999999,1.1234667099445444e-14,2.72,2.37,2.56,2.575,2.37,0.12864680330268613
1 -> 2,1.9750200000000009,1.9750199999999993,1.9750200000000002,1.9750200000000002,1.9750200000000009,6.843874359417885e-16,81.11,81.11,81.11,81.11,81.11,0.0,35.000000000000014,34.99999999999999,35.0,35.0,34.99999999999999,1.1234667099445444e-14,2.1,1.78,1.8975000000000002,1.855,1.78,0.12497499749949989
1 -> 2,1.9750200000000009,1.9750199999999993,1.9750200000000002,1.9750200000000002,1.9750200000000009,6.843874359417885e-16,81.11,81.11,81.11,81.11,81.11,0.0,35.000000000000014,34.99999999999999,35.0,35.0,34.99999999999999,1.1234667099445444e-14,2.1,1.78,1.8975000000000002,1.855,1.78,0.12497499749949989
1 -> 2,1.9750200000000009,1.9750199999999993,1.9750200000000002,1.9750200000000002,1.9750200000000009,6.843874359417885e-16,81.11,81.11,81.11,81.11,81.11,0.0,35.000000000000014,34.99999999999999,35.0,35.0,34.99999999999999,1.1234667099445444e-14,1.73,1.42,1.565,1.5550000000000002,1.42,0.11926860441876566
1 -> 2,1.9750200000000009,1.9750199999999993,1.9750200000000002,1.9750200000000002,1.9750200000000009,6.843874359417885e-16,81.11,81.11,81.11,81.11,81.11,0.0,35.000000000000014,34.99999999999999,35.0,35.0,34.99999999999999,1.1234667099445444e-14,1.73,1.42,1.565,1.5550000000000002,1.42,0.11926860441876566
1 -> 2,1.9750200000000009,1.9750199999999993,1.9750200000000002,1.9750200000000002,1.9750200000000009,6.843874359417885e-16,81.11,81.11,81.11,81.11,81.11,0.0,35.000000000000014,34.99999999999999,35.0,35.0,34.99999999999999,1.1234667099445444e-14,2.28,1.47,1.855,1.835,1.47,0.307286511256189
1 -> 2,1.9750200000000009,1.9750199999999993,1.9750200000000002,1.9750200000000002,1.9750200000000009,6.843874359417885e-16,81.11,81.11,81.11,81.11,81.11,0.0,35.000000000000014,34.99999999999999,35.0,35.0,34.99999999999999,1.1234667099445444e-14,2.28,1.47,1.855,1.835,1.47,0.307286511256189
1 -> 2,1.9750200000000009,1.9750199999999993,1.9750200000000002,1.9750200000000002,1.9750200000000009,6.843874359417885e-16,81.11,81.11,81.11,81.11,81.11,0.0,35.000000000000014,34.99999999999999,35.0,35.0,34.99999999999999,1.1234667099445444e-14,2.43,1.83,2.205,2.2800000000000002,1.83,0.2380651171423483
1 -> 2,1.9750200000000009,1.9750199999999993,1.9750200000000002,1.9750200000000002,1.9750200000000009,6.843874359417885e-16,81.11,81.11,81.11,81.11,81.11,0.0,35.000000000000014,34.99999999999999,35.0,35.0,34.99999999999999,1.1234667099445444e-14,2.43,1.83,2.205,2.2800000000000002,1.83,0.2380651171423483
1 -> 2,1.9827020000000009,1.982701999999999,1.9827020000000002,1.9827020000000004,1.9827020000000009,7.364386412590295e-16,81.11,81.11,81.11,81.11,81.11,0.0,35.000000000000014,34.99999999999999,35.0,35.0,34.99999999999999,1.1234667099445444e-14,1.44,0.18,0.815,0.8200000000000001,0.18,0.46960089437734254
1 -> 2,1.9827020000000009,1.982701999999999,1.9827020000000002,1.9827020000000004,1.9827020000000009,7.364386412590295e-16,81.11,81.11,81.11,81.11,81.11,0.0,35.000000000000014,34.99999999999999,35.0,35.0,34.99999999999999,1.1234667099445444e-14,1.44,0.18,0.815,0.8200000000000001,0.18,0.46960089437734254
1 -> 2,1.9827020000000009,1.982701999999999,1.9827020000000002,1.9827020000000004,1.9827020000000009,7.364386412590295e-16,81.11,81.11,81.11,81.11,81.11,0.0,35.000000000000014,34.99999999999999,35.0,35.0,34.99999999999999,1.1234667099445444e-14,-0.25,-1.37,-0.8225,-0.835,-1.37,0.41721547190870095
1 -> 2,1.9827020000000009,1.982701999999999,1.9827020000000002,1.9827020000000004,1.9827020000000009,7.364386412590295e-16,81.11,81.11,81.11,81.11,81.11,0.0,35.000000000000014,34.99999999999999,35.0,35.0,34.99999999999999,1.1234667099445444e-14,-0.25,-1.37,-0.8225,-0.835,-1.37,0.41721547190870095
1 -> 2,1.9827020000000009,1.982701999999999,1.9827020000000002,1.9827020000000004,1.9827020000000009,7.364386412590295e-16,81.11,81.11,81.11,81.11,81.11,0.0,35.000000000000014,34.99999999999999,35.0,35.0,34.99999999999999,1.1234667099445444e-14,-1.79,-3.97,-2.805,-2.73,-3.97,0.8173891362135908
1 -> 2,1.9827020000000009,1.982701999999999,1.9827020000000002,1.9827020000000004,1.9827020000000009,7.364386412590295e-16,81.11,81.11,81.11,81.11,81.11,0.0,35.000000000000014,34.99999999999999,35.0,35.0,34.99999999999999,1.1234667099445444e-14,-1.79,-3.97,-2.805,-2.73,-3.97,0.8173891362135908
1 -> 2,1.9827020000000009,1.982701999999999,1.9827020000000002,1.9827020000000004,1.9827020000000009,7.364386412590295e-16,81.11,81.11,81.11,81.11,81.11,0.0,35.000000000000014,34.99999999999999,35.0,35.0,34.99999999999999,1.1234667099445444e-14,-4.84,-6.09,-5.615,-5.765000000000001,-6.09,0.4908411148223018
1 -> 2,1.9827020000000009,1.982701999999999,1.9827020000000002,1.9827020000000004,1.9827020000000009,7.364386412590295e-16,81.11,81.11,81.11,81.11,81.11,0.0,35.000000000000014,34.99999999999999,35.0,35.0,34.99999999999999,1.1234667099445444e-14,-4.84,-6.09,-5.615,-5.765000000000001,-6.09,0.4908411148223018
1 -> 2,1.986544000000001,1.9865439999999983,1.9865439999999999,1.986544,1.986544000000001,1.1537776118301384e-15,82.6,82.6,82.6,82.6,82.6,0.0,35.000000000000014,34.99999999999999,35.0,35.0,34.99999999999999,1.1234667099445444e-14,-4.64,-5.92,-5.3075,-5.335,-5.92,0.48048803314963007
1 -> 2,1.986544000000001,1.9865439999999983,1.9865439999999999,1.986544,1.986544000000001,1.1537776118301384e-15,82.6,82.6,82.6,82.6,82.6,0.0,35.000000000000014,34.99999999999999,35.0,35.0,34.99999999999999,1.1234667099445444e-14,-4.64,-5.92,-5.3075,-5.335,-5.92,0.48048803314963007
1 -> 2,1.986544000000001,1.9865439999999983,1.9865439999999999,1.986544,1.986544000000001,1.1537776118301384e-15,82.6,82.6,82.6,82.6,82.6,0.0,35.000000000000014,34.99999999999999,35.0,35.0,34.99999999999999,1.1234667099445444e-14,-1.99,-4.14,-3.135,-3.205,-4.14,0.8035701587291553
1 -> 2,1.986544000000001,1.9865439999999983,1.9865439999999999,1.986544,1.986544000000001,1.1537776118301384e-15,82.6,82.6,82.6,82.6,82.6,0.0,35.000000000000014,34.99999999999999,35.0,35.0,34.99999999999999,1.1234667099445444e-14,-1.99,-4.14,-3.135,-3.205,-4.14,0.8035701587291553
1 -> 2,1.986544000000001,1.9865439999999983,1.9865439999999999,1.986544,1.986544000000001,1.1537776118301384e-15,82.6,82.6,82.6,82.6,82.6,0.0,35.000000000000014,34.99999999999999,35.0,35.0,34.99999999999999,1.1234667099445444e-14,1.78,-0.99,0.455,0.515,-0.99,1.037075214244367
1 -> 2,1.986544000000001,1.9865439999999983,1.9865439999999999,1.986544,1.986544000000001,1.1537776118301384e-15,82.6,82.6,82.6,82.6,82.6,0.0,35.000000000000014,34.99999999999999,35.0,35.0,34.99999999999999,1.1234667099445444e-14,1.78,-0.99,0.455,0.515,-0.99,1.037075214244367
1 -> 2,1.986544000000001,1.9865439999999983,1.9865439999999999,1.986544,1.986544000000001,1.1537776118301384e-15,82.6,82.6,82.6,82.6,82.6,0.0,35.000000000000014,34.99999999999999,35.0,35.0,34.99999999999999,1.1234667099445444e-14,2.78,2.34,2.63,2.7,2.34,0.17190113437671087
1 -> 2,1.986544000000001,1.9865439999999983,1.9865439999999999,1.986544,1.986544000000001,1.1537776118301384e-15,82.6,82.6,82.6,82.6,82.6,0.0,35.000000000000014,34.99999999999999,35.0,35.0,34.99999999999999,1.1234667099445444e-14,2.78,2.34,2.63,2.7,2.34,0.17190113437671087
1 -> 2,1.9891040000000009,1.9891039999999989,1.9891040000000002,1.9891040000000002,1.9891040000000009,8.455206652451151e-16,82.6,82.6,82.6,82.6,82.6,0.0,35.000000000000014,34.99999999999999,35.0,35.0,34.99999999999999,1.1234667099445444e-14,2.52,1.54,2.0300000000000002,2.0300000000000002,1.54,0.36912057650583496
1 -> 2,1.9891040000000009,1.9891039999999989,1.9891040000000002,1.9891040000000002,1.9891040000000009,8.455206652451151e-16,82.6,82.6,82.6,82.6,82.6,0.0,35.000000000000014,34.99999999999999,35.0,35.0,34.99999999999999,1.1234667099445444e-14,2.52,1.54,2.0300000000000002,2.0300000000000002,1.54,0.36912057650583496
1 -> 2,1.9891040000000009,1.9891039999999989,1.9891040000000002,1.9891040000000002,1.9891040000000009,8.455206652451151e-16,82.6,82.6,82.6,82.6,82.6,0.0,35.000000000000014,34.99999999999999,35.0,35.0,34.99999999999999,1.1234667099445444e-14,1.84,1.34,1.5125000000000002,1.435,1.34,0.2021602087454403
1 -> 2,1.9891040000000009,1.9891039999999989,1.9891040000000002,1.9891040000000002,1.9891040000000009,8.455206652451151e-16,82.6,82.6,82.6,82.6,82.6,0.0,35.000000000000014,34.99999999999999,35.0,35.0,34.99999999999999,1.1234667099445444e-14,1.84,1.34,1.5125000000000002,1.435,1.34,0.2021602087454403
1 -> 2,1.9891040000000009,1.9891039999999989,1.9891040000000002,1.9891040000000002,1.9891040000000009,8.455206652451151e-16,82.6,82.6,82.6,82.6,82.6,0.0,35.000000000000014,34.99999999999999,35.0,35.0,34.99999999999999,1.1234667099445444e-14,2.65,2.21,2.4799999999999995,2.53,2.21,0.1640121946685672
1 -> 2,1.9891040000000009,1.9891039999999989,1.9891040000000002,1.9891040000000002,1.9891040000000009,8.455206652451151e-16,82.6,82.6,82.6,82.6,82.6,0.0,35.000000000000014,34.99999999999999,35.0,35.0,34.99999999999999,1.1234667099445444e-14,2.65,2.21,2.4799999999999995,2.53,2.21,0.1640121946685672
1 -> 2,1.9891040000000009,1.9891039999999989,1.9891040000000002,1.9891040000000002,1.9891040000000009,8.455206652451151e-16,82.6,82.6,82.6,82.6,82.6,0.0,35.000000000000014,34.99999999999999,35.0,35.0,34.99999999999999,1.1234667099445444e-14,2.19,0.28,1.2525,1.27,0.28,0.7170207458644414
1 -> 2,1.9891040000000009,1.9891039999999989,1.9891040000000002,1.9891040000000002,1.9891040000000009,8.455206652451151e-16,82.6,82.6,82.6,82.6,82.6,0.0,35.000000000000014,34.99999999999999,35.0,35.0,34.99999999999999,1.1234667099445444e-14,2.19,0.28,1.2525,1.27,0.28,0.7170207458644414
1 -> 2,1.9827020000000009,1.982701999999999,1.9827020000000002,1.9827020000000004,1.9827020000000009,7.364386412590295e-16,82.6,82.6,82.6,82.6,82.6,0.0,35.000000000000014,34.99999999999999,35.0,35.0,34.99999999999999,1.1234667099445444e-14,-0.18,-0.47,-0.38249999999999995,-0.44,-0.47,0.11840080236214617
1 -> 2,1.9827020000000009,1.982701999999999,1.9827020000000002,1.9827020000000004,1.9827020000000009,7.364386412590295e-16,82.6,82.6,82.6,82.6,82.6,0.0,35.000000000000014,34.99999999999999,35.0,35.0,34.99999999999999,1.1234667099445444e-14,-0.18,-0.47,-0.38249999999999995,-0.44,-0.47,0.11840080236214617
1 -> 2,1.9827020000000009,1.982701999999999,1.9827020000000002,1.9827020000000004,1.9827020000000009,7.364386412590295e-16,82.6,82.6,82.6,82.6,82.6,0.0,35.000000000000014,34.99999999999999,35.0,35.0,34.99999999999999,1.1234667099445444e-14,-0.56,-1.87,-1.1500000000000001,-1.085,-1.87,0.49633657934913483
1 -> 2,1.9827020000000009,1.982701999999999,1.9827020000000002,1.9827020000000004,1.9827020000000009,7.364386412590295e-16,82.6,82.6,82.6,82.6,82.6,0.0,35.000000000000014,34.99999999999999,35.0,35.0,34.99999999999999,1.1234667099445444e-14,-0.56,-1.87,-1.1500000000000001,-1.085,-1.87,0.49633657934913483
1 -> 2,1.9827020000000009,1.982701999999999,1.9827020000000002,1.9827020000000004,1.9827020000000009,7.364386412590295e-16,82.6,82.6,82.6,82.6,82.6,0.0,35.000000000000014,34.99999999999999,35.0,35.0,34.99999999999999,1.1234667099445444e-14,-2.36,-3.43,-2.9074999999999998,-2.92,-3.43,0.3950553758652071
1 -> 2,1.9827020000000009,1.982701999999999,1.9827020000000002,1.9827020000000004,1.9827020000000009,7.364386412590295e-16,82.6,82.6,82.6,82.6,82.6,0.0,35.000000000000014,34.99999999999999,35.0,35.0,34.99999999999999,1.1234667099445444e-14,-2.36,-3.43,-2.9074999999999998,-2.92,-3.43,0.3950553758652071
1 -> 2,1.9827020000000009,1.982701999999999,1.9827020000000002,1.9827020000000004,1.9827020000000009,7.364386412590295e-16,82.6,82.6,82.6,82.6,82.6,0.0,35.000000000000014,34.99999999999999,35.0,35.0,34.99999999999999,1.1234667099445444e-14,-3.88,-5.13,-4.574999999999999,-4.645,-5.13,0.4773101716913227
1 -> 2,1.9827020000000009,1.982701999999999,1.9827020000000002,1.9827020000000004,1.9827020000000009,7.364386412590295e-16,82.6,82.6,82.6,82.6,82.6,0.0,35.000000000000014,34.99999999999999,35.0,35.0,34.99999999999999,1.1234667099445444e-14,-3.88,-5.13,-4.574999999999999,-4.645,-5.13,0.4773101716913227
1 -> 2,1.9724590000000009,1.972459,1.9724590000000006,1.9724590000000006,1.9724590000000009,3.8459253727671276e-16,82.6,82.6,82.6,82.6,82.6,0.0,35.000000000000014,34.99999999999999,35.0,35.0,34.99999999999999,1.1234667099445444e-14,-3.59,-5.06,-4.3774999999999995,-4.43,-5.06,0.5561643192438723
1 -> 2,1.9724590000000009,1.972459,1.9724590000000006,1.9724590000000006,1.9724590000000009,3.8459253727671276e-16,82.6,82.6,82.6,82.6,82.6,0.0,35.000000000000014,34.99999999999999,35.0,35.0,34.99999999999999,1.1234667099445444e-14,-3.59,-5.06,-4.3774999999999995,-4.43,-5.06,0.5561643192438723
1 -> 2,1.9724590000000009,1.972459,1.9724590000000006,1.9724590000000006,1.9724590000000009,3.8459253727671276e-16,82.6,82.6,82.6,82.6,82.6,0.0,35.000000000000014,34.99999999999999,35.0,35.0,34.99999999999999,1.1234667099445444e-14,-1.17,-3.07,-2.1849999999999996,-2.25,-3.07,0.7074425771749958
1 -> 2,1.9724590000000009,1.972459,1.9724590000000006,1.9724590000000006,1.9724590000000009,3.8459253727671276e-16,82.6,82.6,82.6,82.6,82.6,0.0,35.000000000000014,34.99999999999999,35.0,35.0,34.99999999999999,1.1234667099445444e-14,-1.17,-3.07,-2.1849999999999996,-2.25,-3.07,0.7074425771749958
1 -> 2,1.9724590000000009,1.972459,1.9724590000000006,1.9724590000000006,1.9724590000000009,3.8459253727671276e-16,82.6,82.6,82.6,82.6,82.6,0.0,35.000000000000014,34.99999999999999,35.0,35.0,34.99999999999999,1.1234667099445444e-14,1.94,-0.24,0.9675,1.085,-0.24,0.8258139923735853
1 -> 2,1.9724590000000009,1.972459,1.9724590000000006,1.9724590000000006,1.9724590000000009,3.8459253727671276e-16,82.6,82.6,82.6,82.6,82.6,0.0,35.000000000000014,34.99999999999999,35.0,35.0,34.99999999999999,1.1234667099445444e-14,1.94,-0.24,0.9675,1.085,-0.24,0.8258139923735853
1 -> 2,1.9724590000000009,1.972459,1.9724590000000006,1.9724590000000006,1.9724590000000009,3.8459253727671276e-16,82.6,82.6,82.6,82.6,82.6,0.0,35.000000000000014,34.99999999999999,35.0,35.0,34.99999999999999,1.1234667099445444e-14,2.11,1.87,1.9975,2.005,1.87,0.09364160400164015
1 -> 2,1.9724590000000009,1.972459,1.9724590000000006,1.9724590000000006,1.9724590000000009,3.8459253727671276e-16,82.6,82.6,82.6,82.6,82.6,0.0,35.000000000000014,34.99999999999999,35.0,35.0,34.99999999999999,1.1234667099445444e-14,2.11,1.87,1.9975,2.005,1.87,0.09364160400164015
1 -> 2,1.9596550000000008,1.9596549999999986,1.9596549999999997,1.959655,1.9596550000000008,1.0175362097255202e-15,83.82,83.82,83.82,83.82,83.82,0.0,34.990000000000016,34.98999999999998,34.99,34.99000000000001,34.990000000000016,1.464821375527116e-14,1.82,1.14,1.5325,1.585,1.14,0.259169346181218
1 -> 2,1.9596550000000008,1.9596549999999986,1.9596549999999997,1.959655,1.9596550000000008,1.0175362097255202e-15,83.82,83.82,83.82,83.82,83.82,0.0,34.990000000000016,34.98999999999998,34.99,34.99000000000001,34.990000000000016,1.464821375527116e-14,1.82,1.14,1.5325,1.585,1.14,0.259169346181218
1 -> 2,1.9596550000000008,1.9596549999999986,1.9596549999999997,1.959655,1.9596550000000008,1.0175362097255202e-15,83.82,83.82,83.82,83.82,83.82,0.0,34.990000000000016,34.98999999999998,34.99,34.99000000000001,34.990000000000016,1.464821375527116e-14,1.54,0.8,1.065,0.96,0.8,0.29064583258667237
1 -> 2,1.9596550000000008,1.9596549999999986,1.9596549999999997,1.959655,1.9596550000000008,1.0175362097255202e-15,83.82,83.82,83.82,83.82,83.82,0.0,34.990000000000016,34.98999999999998,34.99,34.99000000000001,34.990000000000016,1.464821375527116e-14,1.54,0.8,1.065,0.96,0.8,0.29064583258667237
1 -> 2,1.9596550000000008,1.9596549999999986,1.9596549999999997,1.959655,1.9596550000000008,1.0175362097255202e-15,83.82,83.82,83.82,83.82,83.82,0.0,34.990000000000016,34.98999999999998,34.99,34.99000000000001,34.990000000000016,1.464821375527116e-14,2.18,1.12,1.795,1.94,1.12,0.40487652438737415
1 -> 2,1.9596550000000008,1.9596549999999986,1.9596549999999997,1.959655,1.9596550000000008,1.0175362097255202e-15,83.82,83.82,83.82,83.82,83.82,0.0,34.990000000000016,34.98999999999998,34.99,34.99000000000001,34.990000000000016,1.464821375527116e-14,2.18,1.12,1.795,1.94,1.12,0.40487652438737415
1 -> 2,1.9596550000000008,1.9596549999999986,1.9596549999999997,1.959655,1.9596550000000008,1.0175362097255202e-15,83.82,83.82,83.82,83.82,83.82,0.0,34.990000000000016,34.98999999999998,34.99,34.99000000000001,34.990000000000016,1.464821375527116e-14,0.13,-1.62,-0.9275,-1.1099999999999999,-1.62,0.6812993101420257
1 -> 2,1.9596550000000008,1.9596549999999986,1.9596549999999997,1.959655,1.9596550000000008,1.0175362097255202e-15,83.82,83.82,83.82,83.82,83.82,0.0,34.990000000000016,34.98999999999998,34.99,34.99000000000001,34.990000000000016,1.464821375527116e-14,0.13,-1.62,-0.9275,-1.1099999999999999,-1.62,0.6812993101420257
1 -> 2,1.9570940000000008,1.9570940000000003,1.9570940000000006,1.9570940000000006,1.9570940000000003,2.220446049250313e-16,83.82,83.82,83.82,83.82,83.82,0.0,34.990000000000016,34.98999999999998,34.99,34.99000000000001,34.990000000000016,1.464821375527116e-14,-0.98,-1.49,-1.1675,-1.1,-1.49,0.2051066795596867
1 -> 2,1.9570940000000008,1.9570940000000003,1.9570940000000006,1.9570940000000006,1.9570940000000003,2.220446049250313e-16,83.82,83.82,83.82,83.82,83.82,0.0,34.990000000000016,34.98999999999998,34.99,34.99000000000001,34.990000000000016,1.464821375527116e-14,-0.98,-1.49,-1.1675,-1.1,-1.49,0.2051066795596867
1 -> 2,1.9570940000000008,1.9570940000000003,1.9570940000000006,1.9570940000000006,1.9570940000000003,2.220446049250313e-16,83.82,83.82,83.82,83.82,83.82,0.0,34.990000000000016,34.98999999999998,34.99,34.99000000000001,34.990000000000016,1.464821375527116e-14,-1.32,-3.81,-2.4725,-2.38,-3.81,0.9359587330646582
1 -> 2,1.9570940000000008,1.9570940000000003,1.9570940000000006,1.9570940000000006,1.9570940000000003,2.220446049250313e-16,83.82,83.82,83.82,83.82,83.82,0.0,34.990000000000016,34.98999999999998,34.99,34.99000000000001,34.990000000000016,1.464821375527116e-14,-1.32,-3.81,-2.4725,-2.38,-3.81,0.9359587330646582
1 -> 2,1.9570940000000008,1.9570940000000003,1.9570940000000006,1.9570940000000006,1.9570940000000003,2.220446049250313e-16,83.82,83.82,83.82,83.82,83.82,0.0,34.990000000000016,34.98999999999998,34.99,34.99000000000001,34.990000000000016,1.464821375527116e-14,-4.8,-6.06,-5.6225,-5.8149999999999995,-6.06,0.5064768010481822
1 -> 2,1.9570940000000008,1.9570940000000003,1.9570940000000006,1.9570940000000006,1.9570940000000003,2.220446049250313e-16,83.82,83.82,83.82,83.82,83.82,0.0,34.990000000000016,34.98999999999998,34.99,34.99000000000001,34.990000000000016,1.464821375527116e-14,-4.8,-6.06,-5.6225,-5.8149999999999995,-6.06,0.5064768010481822
1 -> 2,1.9570940000000008,1.9570940000000003,1.9570940000000006,1.9570940000000006,1.9570940000000003,2.220446049250313e-16,83.82,83.82,83.82,83.82,83.82,0.0,34.990000000000016,34.98999999999998,34.99,34.99000000000001,34.990000000000016,1.464821375527116e-14,-2.08,-5.46,-3.82,-3.87,-5.46,1.269074465900248
1 -> 2,1.9570940000000008,1.9570940000000003,1.9570940000000006,1.9570940000000006,1.9570940000000003,2.220446049250313e-16,83.82,83.82,83.82,83.82,83.82,0.0,34.990000000000016,34.98999999999998,34.99,34.99000000000001,34.990000000000016,1.464821375527116e-14,-2.08,-5.46,-3.82,-3.87,-5.46,1.269074465900248
1 -> 2,1.9570940000000008,1.9570940000000003,1.9570940000000006,1.9570940000000006,1.9570940000000003,2.220446049250313e-16,83.82,83.82,83.82,83.82,83.82,0.0,34.990000000000016,34.98999999999998,34.99,34.99000000000001,34.990000000000016,1.464821375527116e-14,0.81,-1.07,-0.0625,0.0050000000000000044,-1.07,0.6999062437212573
1 -> 2,1.9570940000000008,1.9570940000000003,1.9570940000000006,1.9570940000000006,1.9570940000000003,2.220446049250313e-16,83.82,83.82,83.82,83.82,83.82,0.0,34.990000000000016,34.98999999999998,34.99,34.99000000000001,34.990000000000016,1.464821375527116e-14,0.81,-1.07,-0.0625,0.0050000000000000044,-1.07,0.6999062437212573
1 -> 2,1.9570940000000008,1.9570940000000003,1.9570940000000006,1.9570940000000006,1.9570940000000003,2.220446049250313e-16,83.82,83.82,83.82,83.82,83.82,0.0,34.990000000000016,34.98999999999998,34.99,34.99000000000001,34.990000000000016,1.464821375527116e-14,2.17,1.28,1.79,1.855,1.28,0.339484903935359
1 -> 2,1.9570940000000008,1.9570940000000003,1.9570940000000006,1.9570940000000006,1.9570940000000003,2.220446049250313e-16,83.82,83.82,83.82,83.82,83.82,0.0,34.990000000000016,34.98999999999998,34.99,34.99000000000001,34.990000000000016,1.464821375527116e-14,2.17,1.28,1.79,1.855,1.28,0.339484903935359
1 -> 2,1.9570940000000008,1.9570940000000003,1.9570940000000006,1.9570940000000006,1.9570940000000003,2.220446049250313e-16,83.82,83.82,83.82,83.82,83.82,0.0,34.990000000000016,34.98999999999998,34.99,34.99000000000001,34.990000000000016,1.464821375527116e-14,2.16,1.69,1.94,1.955,1.69,0.17734147850968204
1 -> 2,1.9570940000000008,1.9570940000000003,1.9570940000000006,1.9570940000000006,1.9570940000000003,2.220446049250313e-16,83.82,83.82,83.82,83.82,83.82,0.0,34.990000000000016,34.98999999999998,34.99,34.99000000000001,34.990000000000016,1.464821375527116e-14,2.16,1.69,1.94,1.955,1.69,0.17734147850968204
1 -> 2,1.9570940000000008,1.9570940000000003,1.9570940000000006,1.9570940000000006,1.9570940000000003,2.220446049250313e-16,83.82,83.82,83.82,83.82,83.82,0.0,34.990000000000016,34.98999999999998,34.99,34.99000000000001,34.990000000000016,1.464821375527116e-14,1.52,1.17,1.3225,1.3,1.17,0.1327356395245829
1 -> 2,1.9570940000000008,1.9570940000000003,1.9570940000000006,1.9570940000000006,1.9570940000000003,2.220446049250313e-16,83.82,83.82,83.82,83.82,83.82,0.0,34.990000000000016,34.98999999999998,34.99,34.99000000000001,34.990000000000016,1.464821375527116e-14,1.52,1.17,1.3225,1.3,1.17,0.1327356395245829
1 -> 2,1.9660570000000008,1.9660569999999995,1.9660570000000002,1.9660570000000002,1.9660570000000008,6.181460191301304e-16,83.82,83.82,83.82,83.82,83.82,0.0,34.990000000000016,34.98999999999998,34.99,34.99000000000001,34.990000000000016,1.464821375527116e-14,1.55,1.17,1.3425,1.325,1.17,0.14549484526951464
1 -> 2,1.9660570000000008,1.9660569999999995,1.9660570000000002,1.9660570000000002,1.9660570000000008,6.181460191301304e-16,83.82,83.82,83.82,83.82,83.82,0.0,34.990000000000016,34.98999999999998,34.99,34.99000000000001,34.990000000000016,1.464821375527116e-14,1.55,1.17,1.3425,1.325,1.17,0.14549484526951464
1 -> 2,1.9660570000000008,1.9660569999999995,1.9660570000000002,1.9660570000000002,1.9660570000000008,6.181460191301304e-16,83.82,83.82,83.82,83.82,83.82,0.0,34.990000000000016,34.98999999999998,34.99,34.99000000000001,34.990000000000016,1.464821375527116e-14,1.7,1.38,1.5875,1.635,1.38,0.1239707626821744
1 -> 2,1.9660570000000008,1.9660569999999995,1.9660570000000002,1.9660570000000002,1.9660570000000008,6.181460191301304e-16,83.82,83.82,83.82,83.82,83.82,0.0,34.990000000000016,34.98999999999998,34.99,34.99000000000001,34.990000000000016,1.464821375527116e-14,1.7,1.38,1.5875,1.635,1.38,0.1239707626821744
1 -> 2,1.9660570000000008,1.9660569999999995,1.9660570000000002,1.9660570000000002,1.9660570000000008,6.181460191301304e-16,83.82,83.82,83.82,83.82,83.82,0.0,34.990000000000016,34.98999999999998,34.99,34.99000000000001,34.990000000000016,1.464821375527116e-14,0.98,-0.67,0.15,0.14500000000000002,-0.67,0.6195562928419015
1 -> 2,1.9660570000000008,1.9660569999999995,1.9660570000000002,1.9660570000000002,1.9660570000000008,6.181460191301304e-16,83.82,83.82,83.82,83.82,83.82,0.0,34.990000000000016,34.98999999999998,34.99,34.99000000000001,34.990000000000016,1.464821375527116e-14,0.98,-0.67,0.15,0.14500000000000002,-0.67,0.6195562928419015
1 -> 2,1.9660570000000008,1.9660569999999995,1.9660570000000002,1.9660570000000002,1.9660570000000008,6.181460191301304e-16,83.82,83.82,83.82,83.82,83.82,0.0,34.990000000000016,34.98999999999998,34.99,34.99000000000001,34.990000000000016,1.464821375527116e-14,-1.05,-1.61,-1.325,-1.3199999999999998,-1.61,0.20414455662593603
1 -> 2,1.9660570000000008,1.9660569999999995,1.9660570000000002,1.9660570000000002,1.9660570000000008,6.181460191301304e-16,83.82,83.82,83.82,83.82,83.82,0.0,34.990000000000016,34.98999999999998,34.99,34.99000000000001,34.990000000000016,1.464821375527116e-14,-1.05,-1.61,-1.325,-1.3199999999999998,-1.61,0.20414455662593603
1 -> 2,1.977581000000001,1.9775809999999996,1.9775810000000003,1.9775810000000003,1.977581000000001,6.181460191301304e-16,84.75,84.75,84.75,84.75,84.75,0.0,35.000000000000014,34.99999999999999,35.0,35.0,34.99999999999999,1.1234667099445444e-14,-2.09,-4.98,-3.47,-3.4050000000000002,-4.98,1.086669222900879
1 -> 2,1.977581000000001,1.9775809999999996,1.9775810000000003,1.9775810000000003,1.977581000000001,6.181460191301304e-16,84.75,84.75,84.75,84.75,84.75,0.0,35.000000000000014,34.99999999999999,35.0,35.0,34.99999999999999,1.1234667099445444e-14,-2.09,-4.98,-3.47,-3.4050000000000002,-4.98,1.086669222900879
1 -> 2,1.977581000000001,1.9775809999999996,1.9775810000000003,1.9775810000000003,1.977581000000001,6.181460191301304e-16,84.75,84.75,84.75,84.75,84.75,0.0,35.000000000000014,34.99999999999999,35.0,35.0,34.99999999999999,1.1234667099445444e-14,-5.82,-6.27,-6.0525,-6.0600000000000005,-6.27,0.21299941314473114
1 -> 2,1.977581000000001,1.9775809999999996,1.9775810000000003,1.9775810000000003,1.977581000000001,6.181460191301304e-16,84.75,84.75,84.75,84.75,84.75,0.0,35.000000000000014,34.99999999999999,35.0,35.0,34.99999999999999,1.1234667099445444e-14,-5.82,-6.27,-6.0525,-6.0600000000000005,-6.27,0.21299941314473114
1 -> 2,1.977581000000001,1.9775809999999996,1.9775810000000003,1.9775810000000003,1.977581000000001,6.181460191301304e-16,84.75,84.75,84.75,84.75,84.75,0.0,35.000000000000014,34.99999999999999,35.0,35.0,34.99999999999999,1.1234667099445444e-14,-3.17,-5.23,-4.1875,-4.175,-5.23,0.7681918705635983
1 -> 2,1.977581000000001,1.9775809999999996,1.9775810000000003,1.9775810000000003,1.977581000000001,6.181460191301304e-16,84.75,84.75,84.75,84.75,84.75,0.0,35.000000000000014,34.99999999999999,35.0,35.0,34.99999999999999,1.1234667099445444e-14,-3.17,-5.23,-4.1875,-4.175,-5.23,0.7681918705635983
1 -> 2,1.977581000000001,1.9775809999999996,1.9775810000000003,1.9775810000000003,1.977581000000001,6.181460191301304e-16,84.75,84.75,84.75,84.75,84.75,0.0,35.000000000000014,34.99999999999999,35.0,35.0,34.99999999999999,1.1234667099445444e-14,-0.09,-2.49,-1.3175,-1.345,-2.49,0.8959736324245263
1 -> 2,1.977581000000001,1.9775809999999996,1.9775810000000003,1.9775810000000003,1.977581000000001,6.181460191301304e-16,84.75,84.75,84.75,84.75,84.75,0.0,35.000000000000014,34.99999999999999,35.0,35.0,34.99999999999999,1.1234667099445444e-14,-0.09,-2.49,-1.3175,-1.345,-2.49,0.8959736324245263
1 -> 2,1.9852630000000009,1.9852629999999993,1.9852630000000002,1.9852630000000004,1.9852630000000009,6.568167990716596e-16,84.75,84.75,84.75,84.75,84.75,0.0,35.000000000000014,34.99999999999999,35.0,35.0,34.99999999999999,1.1234667099445444e-14,2.43,0.72,1.65,1.7249999999999999,0.72,0.6416774890862231
1 -> 2,1.9852630000000009,1.9852629999999993,1.9852630000000002,1.9852630000000004,1.9852630000000009,6.568167990716596e-16,84.75,84.75,84.75,84.75,84.75,0.0,35.000000000000014,34.99999999999999,35.0,35.0,34.99999999999999,1.1234667099445444e-14,2.43,0.72,1.65,1.7249999999999999,0.72,0.6416774890862231
1 -> 2,1.9852630000000009,1.9852629999999993,1.9852630000000002,1.9852630000000004,1.9852630000000009,6.568167990716596e-16,84.75,84.75,84.75,84.75,84.75,0.0,35.000000000000014,34.99999999999999,35.0,35.0,34.99999999999999,1.1234667099445444e-14,2.78,2.55,2.6825,2.7,2.55,0.08347903928532001
1 -> 2,1.9852630000000009,1.9852629999999993,1.9852630000000002,1.9852630000000004,1.9852630000000009,6.568167990716596e-16,84.75,84.75,84.75,84.75,84.75,0.0,35.000000000000014,34.99999999999999,35.0,35.0,34.99999999999999,1.1234667099445444e-14,2.78,2.55,2.6825,2.7,2.55,0.08347903928532001
1 -> 2,1.9852630000000009,1.9852629999999993,1.9852630000000002,1.9852630000000004,1.9852630000000009,6.568167990716596e-16,84.75,84.75,84.75,84.75,84.75,0.0,35.000000000000014,34.99999999999999,35.0,35.0,34.99999999999999,1.1234667099445444e-14,2.72,2.3,2.4475000000000002,2.385,2.3,0.16145819892467536
1 -> 2,1.9852630000000009,1.9852629999999993,1.9852630000000002,1.9852630000000004,1.9852630000000009,6.568167990716596e-16,84.75,84.75,84.75,84.75,84.75,0.0,35.000000000000014,34.99999999999999,35.0,35.0,34.99999999999999,1.1234667099445444e-14,2.72,2.3,2.4475000000000002,2.385,2.3,0.16145819892467536
1 -> 2,1.9852630000000009,1.9852629999999993,1.9852630000000002,1.9852630000000004,1.9852630000000009,6.568167990716596e-16,84.75,84.75,84.75,84.75,84.75,0.0,35.000000000000014,34.99999999999999,35.0,35.0,34.99999999999999,1.1234667099445444e-14,3.89,3.16,3.6275000000000004,3.73,3.16,0.294819860253681
1 -> 2,1.9852630000000009,1.9852629999999993,1.9852630000000002,1.9852630000000004,1.9852630000000009,6.568167990716596e-16,84.75,84.75,84.75,84.75,84.75,0.0,35.000000000000014,34.99999999999999,35.0,35.0,34.99999999999999,1.1234667099445444e-14,3.89,3.16,3.6275000000000004,3.73,3.16,0.294819860253681
1 -> 2,1.990385000000001,1.9903849999999994,1.9903850000000003,1.9903850000000003,1.990385000000001,6.843874359417885e-16,84.75,84.75,84.75,84.75,84.75,0.0,35.000000000000014,34.99999999999999,35.0,35.0,34.99999999999999,1.1234667099445444e-14,3.59,1.33,2.5349999999999997,2.61,1.33,0.8509259662273797
1 -> 2,1.990385000000001,1.9903849999999994,1.9903850000000003,1.9903850000000003,1.990385000000001,6.843874359417885e-16,84.75,84.75,84.75,84.75,84.75,0.0,35.000000000000014,34.99999999999999,35.0,35.0,34.99999999999999,1.1234667099445444e-14,3.59,1.33,2.5349999999999997,2.61,1.33,0.8509259662273797
1 -> 2,1.990385000000001,1.9903849999999994,1.9903850000000003,1.9903850000000003,1.990385000000001,6.843874359417885e-16,84.75,84.75,84.75,84.75,84.75,0.0,35.000000000000014,34.99999999999999,35.0,35.0,34.99999999999999,1.1234667099445444e-14,0.52,-0.44,-0.1025,-0.245,-0.44,0.38615896985568005
1 -> 2,1.990385000000001,1.9903849999999994,1.9903850000000003,1.9903850000000003,1.990385000000001,6.843874359417885e-16,84.75,84.75,84.75,84.75,84.75,0.0,35.000000000000014,34.99999999999999,35.0,35.0,34.99999999999999,1.1234667099445444e-14,0.52,-0.44,-0.1025,-0.245,-0.44,0.38615896985568005
1 -> 2,1.990385000000001,1.9903849999999994,1.9903850000000003,1.9903850000000003,1.990385000000001,6.843874359417885e-16,84.75,84.75,84.75,84.75,84.75,0.0,35.000000000000014,34.99999999999999,35.0,35.0,34.99999999999999,1.1234667099445444e-14,0.48,-0.25,0.1525,0.19,-0.25,0.278960122598195
1 -> 2,1.990385000000001,1.9903849999999994,1.9903850000000003,1.9903850000000003,1.990385000000001,6.843874359417885e-16,84.75,84.75,84.75,84.75,84.75,0.0,35.000000000000014,34.99999999999999,35.0,35.0,34.99999999999999,1.1234667099445444e-14,0.48,-0.25,0.1525,0.19,-0.25,0.278960122598195
1 -> 2,1.990385000000001,1.9903849999999994,1.9903850000000003,1.9903850000000003,1.990385000000001,6.843874359417885e-16,84.75,84.75,84.75,84.75,84.75,0.0,35.000000000000014,34.99999999999999,35.0,35.0,34.99999999999999,1.1234667099445444e-14,0.44,-0.96,-0.1725,-0.085,-0.96,0.5316660135837159
1 -> 2,1.990385000000001,1.9903849999999994,1.9903850000000003,1.9903850000000003,1.990385000000001,6.843874359417885e-16,84.75,84.75,84.75,84.75,84.75,0.0,35.000000000000014,34.99999999999999,35.0,35.0,34.99999999999999,1.1234667099445444e-14,0.44,-0.96,-0.1725,-0.085,-0.96,0.5316660135837159
1 -> 2,1.9891040000000009,1.9891039999999989,1.9891040000000002,1.9891040000000002,1.9891040000000009,8.455206652451151e-16,84.75,84.75,84.75,84.75,84.75,0.0,35.000000000000014,34.99999999999999,35.0,35.0,34.99999999999999,1.1234667099445444e-14,-1.68,-4.14,-2.8775,-2.8449999999999998,-4.14,0.9162525579773296
1 -> 2,1.9891040000000009,1.9891039999999989,1.9891040000000002,1.9891040000000002,1.9891040000000009,8.455206652451151e-16,84.75,84.75,84.75,84.75,84.75,0.0,35.000000000000014,34.99999999999999,35.0,35.0,34.99999999999999,1.1234667099445444e-14,-1.68,-4.14,-2.8775,-2.8449999999999998,-4.14,0.9162525579773296
1 -> 2,1.9891040000000009,1.9891039999999989,1.9891040000000002,1.9891040000000002,1.9891040000000009,8.455206652451151e-16,84.75,84.75,84.75,84.75,84.75,0.0,35.000000000000014,34.99999999999999,35.0,35.0,34.99999999999999,1.1234667099445444e-14,-5.11,-7.28,-6.3225,-6.449999999999999,-7.28,0.8251780110982114
1 -> 2,1.9891040000000009,1.9891039999999989,1.9891040000000002,1.9891040000000002,1.9891040000000009,8.455206652451151e-16,84.75,84.75,84.75,84.75,84.75,0.0,35.000000000000014,34.99999999999999,35.0,35.0,34.99999999999999,1.1234667099445444e-14,-5.11,-7.28,-6.3225,-6.449999999999999,-7.28,0.8251780110982114
1 -> 2,1.9891040000000009,1.9891039999999989,1.9891040000000002,1.9891040000000002,1.9891040000000009,8.455206652451151e-16,84.75,84.75,84.75,84.75,84.75,0.0,35.000000000000014,34.99999999999999,35.0,35.0,34.99999999999999,1.1234667099445444e-14,-5.16,-7.28,-6.347499999999999,-6.475,-7.28,0.8052134810098499
1 -> 2,1.9891040000000009,1.9891039999999989,1.9891040000000002,1.9891040000000002,1.9891040000000009,8.455206652451151e-16,84.75,84.75,84.75,84.75,84.75,0.0,35.000000000000014,34.99999999999999,35.0,35.0,34.99999999999999,1.1234667099445444e-14,-5.16,-7.28,-6.347499999999999,-6.475,-7.28,0.8052134810098499
1 -> 2,1.9891040000000009,1.9891039999999989,1.9891040000000002,1.9891040000000002,1.9891040000000009,8.455206652451151e-16,84.75,84.75,84.75,84.75,84.75,0.0,35.000000000000014,34.99999999999999,35.0,35.0,34.99999999999999,1.1234667099445444e-14,-0.76,-4.14,-2.465,-2.48,-4.14,1.2612394697280924
1 -> 2,1.9891040000000009,1.9891039999999989,1.9891040000000002,1.9891040000000002,1.9891040000000009,8.455206652451151e-16,84.75,84.75,84.75,84.75,84.75,0.0,35.000000000000014,34.99999999999999,35.0,35.0,34.99999999999999,1.1234667099445444e-14,-0.76,-4.14,-2.465,-2.48,-4.14,1.2612394697280924
1 -> 2,1.9788610000000009,1.9788609999999995,1.9788610000000004,1.9788610000000004,1.9788610000000009,5.874748045952207e-16,85.38,85.38,85.38,85.38,85.38,0.0,34.990000000000016,34.98999999999998,34.99,34.99000000000001,34.990000000000016,1.464821375527116e-14,2.11,0.31,1.3375,1.4649999999999999,0.31,0.681739503036167
1 -> 2,1.9788610000000009,1.9788609999999995,1.9788610000000004,1.9788610000000004,1.9788610000000009,5.874748045952207e-16,85.38,85.38,85.38,85.38,85.38,0.0,34.990000000000016,34.98999999999998,34.99,34.99000000000001,34.990000000000016,1.464821375527116e-14,2.11,0.31,1.3375,1.4649999999999999,0.31,0.681739503036167
