PHASE,EDA_MAX,EDA_MIN,EDA_MEAN,EDA_MEDIAN,EDA_MODE,EDA_SD,HR_MAX,HR_MIN,HR_MEAN,HR_MEDIAN,HR_MODE,HR_SD,SKT_MAX,SKT_MIN,SKT_MEAN,SKT_MEDIAN,SKT_MODE,SKT_SD,BVP_MAX,BVP_MIN,BVP_MEAN,BVP_MEDIAN,BVP_MODE,BVP_SD
1 -> 2,1.1373360000000003,1.137336,1.1373360000000001,1.1373360000000001,1.137336,2.220446049250313e-16,79.0,79.0,79.0,79.0,79.0,0.0,34.37000000000001,34.36999999999998,34.370000000000005,34.370000000000005,34.37000000000001,1.2306961192854808e-14,4.01,3.75,3.8425,3.8049999999999997,3.75,0.10084022015049346
1 -> 2,1.1373360000000003,1.137336,1.1373360000000001,1.1373360000000001,1.137336,2.220446049250313e-16,79.0,79.0,79.0,79.0,79.0,0.0,34.37000000000001,34.36999999999998,34.370000000000005,34.370000000000005,34.37000000000001,1.2306961192854808e-14,4.01,3.75,3.8425,3.8049999999999997,3.75,0.10084022015049346
1 -> 2,1.1373360000000003,1.137336,1.1373360000000001,1.1373360000000001,1.137336,2.220446049250313e-16,79.0,79.0,79.0,79.0,79.0,0.0,34.37000000000001,34.36999999999998,34.370000000000005,34.370000000000005,34.37000000000001,1.2306961192854808e-14,3.93,3.35,3.73,3.8200000000000003,3.35,0.23484037131634755
1 -> 2,1.1373360000000003,1.137336,1.1373360000000001,1.1373360000000001,1.137336,2.220446049250313e-16,79.0,79.0,79.0,79.0,79.0,0.0,34.37000000000001,34.36999999999998,34.370000000000005,34.370000000000005,34.37000000000001,1.2306961192854808e-14,3.93,3.35,3.73,3.8200000000000003,3.35,0.23484037131634755
1 -> 2,1.1373360000000003,1.137336,1.1373360000000001,1.1373360000000001,1.137336,2.220446049250313e-16,79.0,79.0,79.0,79.0,79.0,0.0,34.37000000000001,34.36999999999998,34.370000000000005,34.370000000000005,34.37000000000001,1.2306961192854808e-14,2.88,1.26,2.09,2.1100000000000003,1.26,0.6018720794321664
1 -> 2,1.1373360000000003,1.137336,1.1373360000000001,1.1373360000000001,1.137336,2.220446049250313e-16,79.0,79.0,79.0,79.0,79.0,0.0,34.37000000000001,34.36999999999998,34.370000000000005,34.370000000000005,34.37000000000001,1.2306961192854808e-14,2.88,1.26,2.09,2.1100000000000003,1.26,0.6018720794321664
1 -> 2,1.1373360000000003,1.137336,1.1373360000000001,1.1373360000000001,1.137336,2.220446049250313e-16,79.0,79.0,79.0,79.0,79.0,0.0,34.37000000000001,34.36999999999998,34.370000000000005,34.370000000000005,34.37000000000001,1.2306961192854808e-14,0.56,-2.25,-0.815,-0.785,-2.25,1.0514394894619472
1 -> 2,1.1373360000000003,1.137336,1.1373360000000001,1.1373360000000001,1.137336,2.220446049250313e-16,79.0,79.0,79.0,79.0,79.0,0.0,34.37000000000001,34.36999999999998,34.370000000000005,34.370000000000005,34.37000000000001,1.2306961192854808e-14,0.56,-2.25,-0.815,-0.785,-2.25,1.0514394894619472
1 -> 2,1.1360560000000004,1.1360559999999997,1.136056,1.1360560000000002,1.1360560000000004,3.3306690738754696e-16,79.0,79.0,79.0,79.0,79.0,0.0,34.37000000000001,34.36999999999998,34.370000000000005,34.370000000000005,34.37000000000001,1.2306961192854808e-14,-3.08,-3.99,-3.6675,-3.8,-3.99,0.36175786100650253
1 -> 2,1.1360560000000004,1.1360559999999997,1.136056,1.1360560000000002,1.1360560000000004,3.3306690738754696e-16,79.0,79.0,79.0,79.0,79.0,0.0,34.37000000000001,34.36999999999998,34.370000000000005,34.370000000000005,34.37000000000001,1.2306961192854808e-14,-3.08,-3.99,-3.6675,-3.8,-3.99,0.36175786100650253
1 -> 2,1.1360560000000004,1.1360559999999997,1.136056,1.1360560000000002,1.1360560000000004,3.3306690738754696e-16,79.0,79.0,79.0,79.0,79.0,0.0,34.37000000000001,34.36999999999998,34.370000000000005,34.370000000000005,34.37000000000001,1.2306961192854808e-14,-3.85,-4.1,-3.9425,-3.91,-4.1,0.09443913383762036
1 -> 2,1.1360560000000004,1.1360559999999997,1.136056,1.1360560000000002,1.1360560000000004,3.3306690738754696e-16,79.0,79.0,79.0,79.0,79.0,0.0,34.37000000000001,34.36999999999998,34.370000000000005,34.370000000000005,34.37000000000001,1.2306961192854808e-14,-3.85,-4.1,-3.9425,-3.91,-4.1,0.09443913383762036
1 -> 2,1.1360560000000004,1.1360559999999997,1.136056,1.1360560000000002,1.1360560000000004,3.3306690738754696e-16,79.0,79.0,79.0,79.0,79.0,0.0,34.37000000000001,34.36999999999998,34.370000000000005,34.370000000000005,34.37000000000001,1.2306961192854808e-14,-4.51,-7.27,-5.7475,-5.605,-7.27,1.0373132362020643
1 -> 2,1.1360560000000004,1.1360559999999997,1.136056,1.1360560000000002,1.1360560000000004,3.3306690738754696e-16,79.0,79.0,79.0,79.0,79.0,0.0,34.37000000000001,34.36999999999998,34.370000000000005,34.370000000000005,34.37000000000001,1.2306961192854808e-14,-4.51,-7.27,-5.7475,-5.605,-7.27,1.0373132362020643
1 -> 2,1.1360560000000004,1.1360559999999997,1.136056,1.1360560000000002,1.1360560000000004,3.3306690738754696e-16,79.0,79.0,79.0,79.0,79.0,0.0,34.37000000000001,34.36999999999998,34.370000000000005,34.370000000000005,34.37000000000001,1.2306961192854808e-14,-8.71,-11.86,-10.525,-10.765,-11.86,1.2120334153809453
1 -> 2,1.1360560000000004,1.1360559999999997,1.136056,1.1360560000000002,1.1360560000000004,3.3306690738754696e-16,79.0,79.0,79.0,79.0,79.0,0.0,34.37000000000001,34.36999999999998,34.370000000000005,34.370000000000005,34.37000000000001,1.2306961192854808e-14,-8.71,-11.86,-10.525,-10.765,-11.86,1.2120334153809453
1 -> 2,1.1360560000000004,1.1360559999999997,1.136056,1.1360560000000002,1.1360560000000004,3.3306690738754696e-16,79.0,79.0,79.0,79.0,79.0,0.0,34.37000000000001,34.36999999999998,34.370000000000005,34.370000000000005,34.37000000000001,1.2306961192854808e-14,-4.99,-11.44,-8.545,-8.875,-11.44,2.4399436468902307
1 -> 2,1.1360560000000004,1.1360559999999997,1.136056,1.1360560000000002,1.1360560000000004,3.3306690738754696e-16,79.0,79.0,79.0,79.0,79.0,0.0,34.37000000000001,34.36999999999998,34.370000000000005,34.370000000000005,34.37000000000001,1.2306961192854808e-14,-4.99,-11.44,-8.545,-8.875,-11.44,2.4399436468902307
1 -> 2,1.1360560000000004,1.1360559999999997,1.136056,1.1360560000000002,1.1360560000000004,3.3306690738754696e-16,79.0,79.0,79.0,79.0,79.0,0.0,34.37000000000001,34.36999999999998,34.370000000000005,34.370000000000005,34.37000000000001,1.2306961192854808e-14,4.5,-2.19,1.3250000000000002,1.495,-2.19,2.496782930092242
1 -> 2,1.1360560000000004,1.1360559999999997,1.136056,1.1360560000000002,1.1360560000000004,3.3306690738754696e-16,79.0,79.0,79.0,79.0,79.0,0.0,34.37000000000001,34.36999999999998,34.370000000000005,34.370000000000005,34.37000000000001,1.2306961192854808e-14,4.5,-2.19,1.3250000000000002,1.495,-2.19,2.496782930092242
1 -> 2,1.1360560000000004,1.1360559999999997,1.136056,1.1360560000000002,1.1360560000000004,3.3306690738754696e-16,79.0,79.0,79.0,79.0,79.0,0.0,34.37000000000001,34.36999999999998,34.370000000000005,34.370000000000005,34.37000000000001,1.2306961192854808e-14,9.43,6.15,7.98,8.17,6.15,1.2423163848231253
1 -> 2,1.1360560000000004,1.1360559999999997,1.136056,1.1360560000000002,1.1360560000000004,3.3306690738754696e-16,79.0,79.0,79.0,79.0,79.0,0.0,34.37000000000001,34.36999999999998,34.370000000000005,34.370000000000005,34.37000000000001,1.2306961192854808e-14,9.43,6.15,7.98,8.17,6.15,1.2423163848231253
1 -> 2,1.1360560000000004,1.1360559999999997,1.136056,1.1360560000000002,1.1360560000000004,3.3306690738754696e-16,79.0,79.0,79.0,79.0,79.0,0.0,34.37000000000001,34.36999999999998,34.370000000000005,34.370000000000005,34.37000000000001,1.2306961192854808e-14,9.61,8.64,9.1375,9.149999999999999,8.64,0.37392345473371913
1 -> 2,1.1360560000000004,1.1360559999999997,1.136056,1.1360560000000002,1.1360560000000004,3.3306690738754696e-16,79.0,79.0,79.0,79.0,79.0,0.0,34.37000000000001,34.36999999999998,34.370000000000005,34.370000000000005,34.37000000000001,1.2306961192854808e-14,9.61,8.64,9.1375,9.149999999999999,8.64,0.37392345473371913
1 -> 2,1.1347750000000005,1.1347749999999996,1.134775,1.134775,1.1347749999999996,4.440892098500626e-16,79.0,79.0,79.0,79.0,79.0,0.0,34.37000000000001,34.36999999999998,34.370000000000005,34.370000000000005,34.37000000000001,1.2306961192854808e-14,9.33,8.65,9.04,9.09,8.65,0.27037011669191546
1 -> 2,1.1347750000000005,1.1347749999999996,1.134775,1.134775,1.1347749999999996,4.440892098500626e-16,79.0,79.0,79.0,79.0,79.0,0.0,34.37000000000001,34.36999999999998,34.370000000000005,34.370000000000005,34.37000000000001,1.2306961192854808e-14,9.33,8.65,9.04,9.09,8.65,0.27037011669191546
1 -> 2,1.1347750000000005,1.1347749999999996,1.134775,1.134775,1.1347749999999996,4.440892098500626e-16,79.0,79.0,79.0,79.0,79.0,0.0,34.37000000000001,34.36999999999998,34.370000000000005,34.370000000000005,34.37000000000001,1.2306961192854808e-14,9.0,6.33,7.717499999999999,7.77,6.33,1.0045241410737722
1 -> 2,1.1347750000000005,1.1347749999999996,1.134775,1.134775,1.1347749999999996,4.440892098500626e-16,79.0,79.0,79.0,79.0,79.0,0.0,34.37000000000001,34.36999999999998,34.370000000000005,34.370000000000005,34.37000000000001,1.2306961192854808e-14,9.0,6.33,7.717499999999999,7.77,6.33,1.0045241410737722
1 -> 2,1.1347750000000005,1.1347749999999996,1.134775,1.134775,1.1347749999999996,4.440892098500626e-16,79.0,79.0,79.0,79.0,79.0,0.0,34.37000000000001,34.36999999999998,34.370000000000005,34.370000000000005,34.37000000000001,1.2306961192854808e-14,5.53,3.59,4.575,4.59,3.59,0.7181051455044728
1 -> 2,1.1347750000000005,1.1347749999999996,1.134775,1.134775,1.1347749999999996,4.440892098500626e-16,79.0,79.0,79.0,79.0,79.0,0.0,34.37000000000001,34.36999999999998,34.370000000000005,34.370000000000005,34.37000000000001,1.2306961192854808e-14,5.53,3.59,4.575,4.59,3.59,0.7181051455044728
1 -> 2,1.1347750000000005,1.1347749999999996,1.134775,1.134775,1.1347749999999996,4.440892098500626e-16,79.0,79.0,79.0,79.0,79.0,0.0,34.37000000000001,34.36999999999998,34.370000000000005,34.370000000000005,34.37000000000001,1.2306961192854808e-14,2.77,0.69,1.6349999999999998,1.54,0.69,0.7863046483393062
1 -> 2,1.1347750000000005,1.1347749999999996,1.134775,1.134775,1.1347749999999996,4.440892098500626e-16,79.0,79.0,79.0,79.0,79.0,0.0,34.37000000000001,34.36999999999998,34.370000000000005,34.370000000000005,34.37000000000001,1.2306961192854808e-14,2.77,0.69,1.6349999999999998,1.54,0.69,0.7863046483393062
1 -> 2,1.1334950000000004,1.1334949999999997,1.133495,1.133495,1.1334949999999997,3.510833468576701e-16,84.0,84.0,84.0,84.0,84.0,0.0,34.37000000000001,34.36999999999998,34.370000000000005,34.370000000000005,34.37000000000001,1.2306961192854808e-14,0.47,-0.29,0.18,0.27,-0.29,0.2920616373302047
1 -> 2,1.1334950000000004,1.1334949999999997,1.133495,1.133495,1.1334949999999997,3.510833468576701e-16,84.0,84.0,84.0,84.0,84.0,0.0,34.37000000000001,34.36999999999998,34.370000000000005,34.370000000000005,34.37000000000001,1.2306961192854808e-14,0.47,-0.29,0.18,0.27,-0.29,0.2920616373302047
1 -> 2,1.1334950000000004,1.1334949999999997,1.133495,1.133495,1.1334949999999997,3.510833468576701e-16,84.0,84.0,84.0,84.0,84.0,0.0,34.37000000000001,34.36999999999998,34.370000000000005,34.370000000000005,34.37000000000001,1.2306961192854808e-14,-1.03,-3.38,-2.2775,-2.35,-3.38,0.8853071500897302
1 -> 2,1.1334950000000004,1.1334949999999997,1.133495,1.133495,1.1334949999999997,3.510833468576701e-16,84.0,84.0,84.0,84.0,84.0,0.0,34.37000000000001,34.36999999999998,34.370000000000005,34.370000000000005,34.37000000000001,1.2306961192854808e-14,-1.03,-3.38,-2.2775,-2.35,-3.38,0.8853071500897302
1 -> 2,1.1334950000000004,1.1334949999999997,1.133495,1.133495,1.1334949999999997,3.510833468576701e-16,84.0,84.0,84.0,84.0,84.0,0.0,34.37000000000001,34.36999999999998,34.370000000000005,34.370000000000005,34.37000000000001,1.2306961192854808e-14,-3.69,-3.98,-3.8275,-3.82,-3.98,0.10377258790258631
1 -> 2,1.1334950000000004,1.1334949999999997,1.133495,1.133495,1.1334949999999997,3.510833468576701e-16,84.0,84.0,84.0,84.0,84.0,0.0,34.37000000000001,34.36999999999998,34.370000000000005,34.370000000000005,34.37000000000001,1.2306961192854808e-14,-3.69,-3.98,-3.8275,-3.82,-3.98,0.10377258790258631
1 -> 2,1.1334950000000004,1.1334949999999997,1.133495,1.133495,1.1334949999999997,3.510833468576701e-16,84.0,84.0,84.0,84.0,84.0,0.0,34.37000000000001,34.36999999999998,34.370000000000005,34.370000000000005,34.37000000000001,1.2306961192854808e-14,-4.31,-6.59,-5.3475,-5.245,-6.59,0.856982351043474
1 -> 2,1.1334950000000004,1.1334949999999997,1.133495,1.133495,1.1334949999999997,3.510833468576701e-16,84.0,84.0,84.0,84.0,84.0,0.0,34.37000000000001,34.36999999999998,34.370000000000005,34.370000000000005,34.37000000000001,1.2306961192854808e-14,-4.31,-6.59,-5.3475,-5.245,-6.59,0.856982351043474
1 -> 2,1.1322150000000004,1.1322149999999995,1.1322150000000002,1.1322150000000004,1.1322150000000004,3.6821932062951477e-16,84.0,84.0,84.0,84.0,84.0,0.0,34.37000000000001,34.36999999999998,34.370000000000005,34.370000000000005,34.37000000000001,1.2306961192854808e-14,-7.65,-9.54,-8.8,-9.004999999999999,-9.54,0.7426641232751178
1 -> 2,1.1322150000000004,1.1322149999999995,1.1322150000000002,1.1322150000000004,1.1322150000000004,3.6821932062951477e-16,84.0,84.0,84.0,84.0,84.0,0.0,34.37000000000001,34.36999999999998,34.370000000000005,34.370000000000005,34.37000000000001,1.2306961192854808e-14,-7.65,-9.54,-8.8,-9.004999999999999,-9.54,0.7426641232751178
1 -> 2,1.1322150000000004,1.1322149999999995,1.1322150000000002,1.1322150000000004,1.1322150000000004,3.6821932062951477e-16,84.0,84.0,84.0,84.0,84.0,0.0,34.37000000000001,34.36999999999998,34.370000000000005,34.370000000000005,34.37000000000001,1.2306961192854808e-14,-3.64,-9.0,-6.55,-6.779999999999999,-9.0,2.021360927692034
1 -> 2,1.1322150000000004,1.1322149999999995,1.1322150000000002,1.1322150000000004,1.1322150000000004,3.6821932062951477e-16,84.0,84.0,84.0,84.0,84.0,0.0,34.37000000000001,34.36999999999998,34.370000000000005,34.370000000000005,34.37000000000001,1.2306961192854808e-14,-3.64,-9.0,-6.55,-6.779999999999999,-9.0,2.021360927692034
1 -> 2,1.1322150000000004,1.1322149999999995,1.1322150000000002,1.1322150000000004,1.1322150000000004,3.6821932062951477e-16,84.0,84.0,84.0,84.0,84.0,0.0,34.37000000000001,34.36999999999998,34.370000000000005,34.370000000000005,34.37000000000001,1.2306961192854808e-14,2.23,-1.48,0.6525000000000001,0.93,-1.48,1.4105739080246735
1 -> 2,1.1322150000000004,1.1322149999999995,1.1322150000000002,1.1322150000000004,1.1322150000000004,3.6821932062951477e-16,84.0,84.0,84.0,84.0,84.0,0.0,34.37000000000001,34.36999999999998,34.370000000000005,34.370000000000005,34.37000000000001,1.2306961192854808e-14,2.23,-1.48,0.6525000000000001,0.93,-1.48,1.4105739080246735
1 -> 2,1.1322150000000004,1.1322149999999995,1.1322150000000002,1.1322150000000004,1.1322150000000004,3.6821932062951477e-16,84.0,84.0,84.0,84.0,84.0,0.0,34.37000000000001,34.36999999999998,34.370000000000005,34.370000000000005,34.37000000000001,1.2306961192854808e-14,2.46,2.11,2.32,2.355,2.11,0.13910427743243564
1 -> 2,1.1322150000000004,1.1322149999999995,1.1322150000000002,1.1322150000000004,1.1322150000000004,3.6821932062951477e-16,84.0,84.0,84.0,84.0,84.0,0.0,34.37000000000001,34.36999999999998,34.370000000000005,34.370000000000005,34.37000000000001,1.2306961192854808e-14,2.46,2.11,2.32,2.355,2.11,0.13910427743243564
1 -> 2,1.1283730000000005,1.1283729999999998,1.1283730000000003,1.1283730000000003,1.1283730000000005,2.9373740229761033e-16,84.0,84.0,84.0,84.0,84.0,0.0,34.37000000000001,34.36999999999998,34.370000000000005,34.370000000000005,34.37000000000001,1.2306961192854808e-14,1.94,1.69,1.785,1.755,1.69,0.09656603957913983
1 -> 2,1.1283730000000005,1.1283729999999998,1.1283730000000003,1.1283730000000003,1.1283730000000005,2.9373740229761033e-16,84.0,84.0,84.0,84.0,84.0,0.0,34.37000000000001,34.36999999999998,34.370000000000005,34.370000000000005,34.37000000000001,1.2306961192854808e-14,1.94,1.69,1.785,1.755,1.69,0.09656603957913983
1 -> 2,1.1283730000000005,1.1283729999999998,1.1283730000000003,1.1283730000000003,1.1283730000000005,2.9373740229761033e-16,84.0,84.0,84.0,84.0,84.0,0.0,34.37000000000001,34.36999999999998,34.370000000000005,34.370000000000005,34.37000000000001,1.2306961192854808e-14,2.96,1.91,2.4400000000000004,2.4450000000000003,1.91,0.39604292696625704
1 -> 2,1.1283730000000005,1.1283729999999998,1.1283730000000003,1.1283730000000003,1.1283730000000005,2.9373740229761033e-16,84.0,84.0,84.0,84.0,84.0,0.0,34.37000000000001,34.36999999999998,34.370000000000005,34.370000000000005,34.37000000000001,1.2306961192854808e-14,2.96,1.91,2.4400000000000004,2.4450000000000003,1.91,0.39604292696625704
1 -> 2,1.1283730000000005,1.1283729999999998,1.1283730000000003,1.1283730000000003,1.1283730000000005,2.9373740229761033e-16,84.0,84.0,84.0,84.0,84.0,0.0,34.37000000000001,34.36999999999998,34.370000000000005,34.370000000000005,34.37000000000001,1.2306961192854808e-14,3.09,2.18,2.7275,2.8200000000000003,2.18,0.35336772631353863
1 -> 2,1.1283730000000005,1.1283729999999998,1.1283730000000003,1.1283730000000003,1.1283730000000005,2.9373740229761033e-16,84.0,84.0,84.0,84.0,84.0,0.0,34.37000000000001,34.36999999999998,34.370000000000005,34.370000000000005,34.37000000000001,1.2306961192854808e-14,3.09,2.18,2.7275,2.8200000000000003,2.18,0.35336772631353863
1 -> 2,1.1283730000000005,1.1283729999999998,1.1283730000000003,1.1283730000000003,1.1283730000000005,2.9373740229761033e-16,84.0,84.0,84.0,84.0,84.0,0.0,34.37000000000001,34.36999999999998,34.370000000000005,34.370000000000005,34.37000000000001,1.2306961192854808e-14,1.67,1.09,1.2975,1.2149999999999999,1.09,0.2244298331327633
1 -> 2,1.1283730000000005,1.1283729999999998,1.1283730000000003,1.1283730000000003,1.1283730000000005,2.9373740229761033e-16,84.0,84.0,84.0,84.0,84.0,0.0,34.37000000000001,34.36999999999998,34.370000000000005,34.370000000000005,34.37000000000001,1.2306961192854808e-14,1.67,1.09,1.2975,1.2149999999999999,1.09,0.2244298331327633
1 -> 2,1.1283730000000005,1.1283729999999998,1.1283730000000003,1.1283730000000003,1.1283730000000005,2.9373740229761033e-16,84.0,84.0,84.0,84.0,84.0,0.0,34.37000000000001,34.36999999999998,34.370000000000005,34.370000000000005,34.37000000000001,1.2306961192854808e-14,2.02,1.44,1.81,1.8900000000000001,1.44,0.23119256043393788
1 -> 2,1.1283730000000005,1.1283729999999998,1.1283730000000003,1.1283730000000003,1.1283730000000005,2.9373740229761033e-16,84.0,84.0,84.0,84.0,84.0,0.0,34.37000000000001,34.36999999999998,34.370000000000005,34.370000000000005,34.37000000000001,1.2306961192854808e-14,2.02,1.44,1.81,1.8900000000000001,1.44,0.23119256043393788
1 -> 2,1.1283730000000005,1.1283729999999998,1.1283730000000003,1.1283730000000003,1.1283730000000005,2.9373740229761033e-16,84.0,84.0,84.0,84.0,84.0,0.0,34.37000000000001,34.36999999999998,34.370000000000005,34.370000000000005,34.37000000000001,1.2306961192854808e-14,1.69,0.11,0.9049999999999999,0.9099999999999999,0.11,0.59268457040824
1 -> 2,1.1283730000000005,1.1283729999999998,1.1283730000000003,1.1283730000000003,1.1283730000000005,2.9373740229761033e-16,84.0,84.0,84.0,84.0,84.0,0.0,34.37000000000001,34.36999999999998,34.370000000000005,34.370000000000005,34.37000000000001,1.2306961192854808e-14,1.69,0.11,0.9049999999999999,0.9099999999999999,0.11,0.59268457040824
1 -> 2,1.1283730000000005,1.1283729999999998,1.1283730000000003,1.1283730000000003,1.1283730000000005,2.9373740229761033e-16,84.0,84.0,84.0,84.0,84.0,0.0,34.37000000000001,34.36999999999998,34.370000000000005,34.370000000000005,34.37000000000001,1.2306961192854808e-14,-0.31,-1.57,-0.9200000000000002,-0.9,-1.57,0.4678140656286427
1 -> 2,1.1283730000000005,1.1283729999999998,1.1283730000000003,1.1283730000000003,1.1283730000000005,2.9373740229761033e-16,84.0,84.0,84.0,84.0,84.0,0.0,34.37000000000001,34.36999999999998,34.370000000000005,34.370000000000005,34.37000000000001,1.2306961192854808e-14,-0.31,-1.57,-0.9200000000000002,-0.9,-1.57,0.4678140656286427
1 -> 2,1.1283730000000005,1.1283729999999998,1.1283730000000003,1.1283730000000003,1.1283730000000005,2.9373740229761033e-16,84.0,84.0,84.0,84.0,84.0,0.0,34.37000000000001,34.36999999999998,34.370000000000005,34.370000000000005,34.37000000000001,1.2306961192854808e-14,-2.14,-4.57,-3.2875,-3.2199999999999998,-4.57,0.9070108874759994
1 -> 2,1.1283730000000005,1.1283729999999998,1.1283730000000003,1.1283730000000003,1.1283730000000005,2.9373740229761033e-16,84.0,84.0,84.0,84.0,84.0,0.0,34.37000000000001,34.36999999999998,34.370000000000005,34.370000000000005,34.37000000000001,1.2306961192854808e-14,-2.14,-4.57,-3.2875,-3.2199999999999998,-4.57,0.9070108874759994
1 -> 2,1.1258130000000004,1.1258129999999997,1.125813,1.1258130000000002,1.1258130000000004,3.3306690738754696e-16,73.33,73.33,73.33,73.33,73.33,0.0,34.34000000000002,34.33999999999998,34.34,34.34000000000001,34.34000000000002,1.464821375527116e-14,-5.67,-8.63,-7.255000000000001,-7.359999999999999,-8.63,1.1165460133823417
1 -> 2,1.1258130000000004,1.1258129999999997,1.125813,1.1258130000000002,1.1258130000000004,3.3306690738754696e-16,73.33,73.33,73.33,73.33,73.33,0.0,34.34000000000002,34.33999999999998,34.34,34.34000000000001,34.34000000000002,1.464821375527116e-14,-5.67,-8.63,-7.255000000000001,-7.359999999999999,-8.63,1.1165460133823417
1 -> 2,1.1258130000000004,1.1258129999999997,1.125813,1.1258130000000002,1.1258130000000004,3.3306690738754696e-16,73.33,73.33,73.33,73.33,73.33,0.0,34.34000000000002,34.33999999999998,34.34,34.34000000000001,34.34000000000002,1.464821375527116e-14,-6.23,-8.87,-7.795,-8.04,-8.87,1.020624808634397
1 -> 2,1.1258130000000004,1.1258129999999997,1.125813,1.1258130000000002,1.1258130000000004,3.3306690738754696e-16,73.33,73.33,73.33,73.33,73.33,0.0,34.34000000000002,34.33999999999998,34.34,34.34000000000001,34.34000000000002,1.464821375527116e-14,-6.23,-8.87,-7.795,-8.04,-8.87,1.020624808634397
1 -> 2,1.1258130000000004,1.1258129999999997,1.125813,1.1258130000000002,1.1258130000000004,3.3306690738754696e-16,73.33,73.33,73.33,73.33,73.33,0.0,34.34000000000002,34.33999999999998,34.34,34.34000000000001,34.34000000000002,1.464821375527116e-14,-1.4,-4.73,-2.9050000000000002,-2.745,-4.73,1.2535250296663407
1 -> 2,1.1258130000000004,1.1258129999999997,1.125813,1.1258130000000002,1.1258130000000004,3.3306690738754696e-16,73.33,73.33,73.33,73.33,73.33,0.0,34.34000000000002,34.33999999999998,34.34,34.34000000000001,34.34000000000002,1.464821375527116e-14,-1.4,-4.73,-2.9050000000000002,-2.745,-4.73,1.2535250296663407
1 -> 2,1.1258130000000004,1.1258129999999997,1.125813,1.1258130000000002,1.1258130000000004,3.3306690738754696e-16,73.33,73.33,73.33,73.33,73.33,0.0,34.34000000000002,34.33999999999998,34.34,34.34000000000001,34.34000000000002,1.464821375527116e-14,-0.37,-0.94,-0.64,-0.625,-0.94,0.20892582415776176
1 -> 2,1.1258130000000004,1.1258129999999997,1.125813,1.1258130000000002,1.1258130000000004,3.3306690738754696e-16,73.33,73.33,73.33,73.33,73.33,0.0,34.34000000000002,34.33999999999998,34.34,34.34000000000001,34.34000000000002,1.464821375527116e-14,-0.37,-0.94,-0.64,-0.625,-0.94,0.20892582415776176
1 -> 2,1.1232520000000004,1.1232519999999997,1.123252,1.1232520000000001,1.1232520000000004,3.3306690738754696e-16,73.33,73.33,73.33,73.33,73.33,0.0,34.34000000000002,34.33999999999998,34.34,34.34000000000001,34.34000000000002,1.464821375527116e-14,0.17,-0.15,0.0425,0.075,-0.15,0.11818946653572814
1 -> 2,1.1232520000000004,1.1232519999999997,1.123252,1.1232520000000001,1.1232520000000004,3.3306690738754696e-16,73.33,73.33,73.33,73.33,73.33,0.0,34.34000000000002,34.33999999999998,34.34,34.34000000000001,34.34000000000002,1.464821375527116e-14,0.17,-0.15,0.0425,0.075,-0.15,0.11818946653572814
1 -> 2,1.1232520000000004,1.1232519999999997,1.123252,1.1232520000000001,1.1232520000000004,3.3306690738754696e-16,73.33,73.33,73.33,73.33,73.33,0.0,34.34000000000002,34.33999999999998,34.34,34.34000000000001,34.34000000000002,1.464821375527116e-14,-0.16,-0.57,-0.39,-0.41500000000000004,-0.57,0.14815532390029051
1 -> 2,1.1232520000000004,1.1232519999999997,1.123252,1.1232520000000001,1.1232520000000004,3.3306690738754696e-16,73.33,73.33,73.33,73.33,73.33,0.0,34.34000000000002,34.33999999999998,34.34,34.34000000000001,34.34000000000002,1.464821375527116e-14,-0.16,-0.57,-0.39,-0.41500000000000004,-0.57,0.14815532390029051
1 -> 2,1.1232520000000004,1.1232519999999997,1.123252,1.1232520000000001,1.1232520000000004,3.3306690738754696e-16,73.33,73.33,73.33,73.33,73.33,0.0,34.34000000000002,34.33999999999998,34.34,34.34000000000001,34.34000000000002,1.464821375527116e-14,2.07,0.13,1.1675,1.235,0.13,0.7359475185093024
1 -> 2,1.1232520000000004,1.1232519999999997,1.123252,1.1232520000000001,1.1232520000000004,3.3306690738754696e-16,73.33,73.33,73.33,73.33,73.33,0.0,34.34000000000002,34.33999999999998,34.34,34.34000000000001,34.34000000000002,1.464821375527116e-14,2.07,0.13,1.1675,1.235,0.13,0.7359475185093024
1 -> 2,1.1232520000000004,1.1232519999999997,1.123252,1.1232520000000001,1.1232520000000004,3.3306690738754696e-16,73.33,73.33,73.33,73.33,73.33,0.0,34.34000000000002,34.33999999999998,34.34,34.34000000000001,34.34000000000002,1.464821375527116e-14,2.14,0.52,1.4224999999999999,1.5150000000000001,0.52,0.6165377117419502
1 -> 2,1.1232520000000004,1.1232519999999997,1.123252,1.1232520000000001,1.1232520000000004,3.3306690738754696e-16,73.33,73.33,73.33,73.33,73.33,0.0,34.34000000000002,34.33999999999998,34.34,34.34000000000001,34.34000000000002,1.464821375527116e-14,2.14,0.52,1.4224999999999999,1.5150000000000001,0.52,0.6165377117419502
1 -> 2,1.1232520000000004,1.1232519999999997,1.123252,1.1232520000000001,1.1232520000000004,3.3306690738754696e-16,73.33,73.33,73.33,73.33,73.33,0.0,34.34000000000002,34.33999999999998,34.34,34.34000000000001,34.34000000000002,1.464821375527116e-14,-0.15,-1.59,-0.9125000000000001,-0.955,-1.59,0.5372324915713866
1 -> 2,1.1232520000000004,1.1232519999999997,1.123252,1.1232520000000001,1.1232520000000004,3.3306690738754696e-16,73.33,73.33,73.33,73.33,73.33,0.0,34.34000000000002,34.33999999999998,34.34,34.34000000000001,34.34000000000002,1.464821375527116e-14,-0.15,-1.59,-0.9125000000000001,-0.955,-1.59,0.5372324915713866
1 -> 2,1.1232520000000004,1.1232519999999997,1.123252,1.1232520000000001,1.1232520000000004,3.3306690738754696e-16,73.33,73.33,73.33,73.33,73.33,0.0,34.34000000000002,34.33999999999998,34.34,34.34000000000001,34.34000000000002,1.464821375527116e-14,-1.9,-2.44,-2.195,-2.2199999999999998,-2.44,0.20068632240389475
1 -> 2,1.1232520000000004,1.1232519999999997,1.123252,1.1232520000000001,1.1232520000000004,3.3306690738754696e-16,73.33,73.33,73.33,73.33,73.33,0.0,34.34000000000002,34.33999999999998,34.34,34.34000000000001,34.34000000000002,1.464821375527116e-14,-1.9,-2.44,-2.195,-2.2199999999999998,-2.44,0.20068632240389475
1 -> 2,1.1232520000000004,1.1232519999999997,1.123252,1.1232520000000001,1.1232520000000004,3.3306690738754696e-16,73.33,73.33,73.33,73.33,73.33,0.0,34.34000000000002,34.33999999999998,34.34,34.34000000000001,34.34000000000002,1.464821375527116e-14,-2.63,-3.99,-3.2325000000000004,-3.1550000000000002,-3.99,0.5123658360976072
1 -> 2,1.1232520000000004,1.1232519999999997,1.123252,1.1232520000000001,1.1232520000000004,3.3306690738754696e-16,73.33,73.33,73.33,73.33,73.33,0.0,34.34000000000002,34.33999999999998,34.34,34.34000000000001,34.34000000000002,1.464821375527116e-14,-2.63,-3.99,-3.2325000000000004,-3.1550000000000002,-3.99,0.5123658360976072
1 -> 2,1.1232520000000004,1.1232519999999997,1.123252,1.1232520000000001,1.1232520000000004,3.3306690738754696e-16,73.33,73.33,73.33,73.33,73.33,0.0,34.34000000000002,34.33999999999998,34.34,34.34000000000001,34.34000000000002,1.464821375527116e-14,-4.7,-7.0,-5.85,-5.85,-7.0,0.8586617494683223
1 -> 2,1.1232520000000004,1.1232519999999997,1.123252,1.1232520000000001,1.1232520000000004,3.3306690738754696e-16,73.33,73.33,73.33,73.33,73.33,0.0,34.34000000000002,34.33999999999998,34.34,34.34000000000001,34.34000000000002,1.464821375527116e-14,-4.7,-7.0,-5.85,-5.85,-7.0,0.8586617494683223
1 -> 2,1.1232520000000004,1.1232519999999997,1.123252,1.1232520000000001,1.1232520000000004,3.3306690738754696e-16,73.33,73.33,73.33,73.33,73.33,0.0,34.34000000000002,34.33999999999998,34.34,34.34000000000001,34.34000000000002,1.464821375527116e-14,-7.74,-9.75,-8.764999999999999,-8.785,-9.75,0.7493497180889573
1 -> 2,1.1232520000000004,1.1232519999999997,1.123252,1.1232520000000001,1.1232520000000004,3.3306690738754696e-16,73.33,73.33,73.33,73.33,73.33,0.0,34.34000000000002,34.33999999999998,34.34,34.34000000000001,34.34000000000002,1.464821375527116e-14,-7.74,-9.75,-8.764999999999999,-8.785,-9.75,0.7493497180889573
1 -> 2,1.1232520000000004,1.1232519999999997,1.123252,1.1232520000000001,1.1232520000000004,3.3306690738754696e-16,73.33,73.33,73.33,73.33,73.33,0.0,34.34000000000002,34.33999999999998,34.34,34.34000000000001,34.34000000000002,1.464821375527116e-14,-10.32,-10.92,-10.67,-10.719999999999999,-10.92,0.21897488440458174
1 -> 2,1.1232520000000004,1.1232519999999997,1.123252,1.1232520000000001,1.1232520000000004,3.3306690738754696e-16,73.33,73.33,73.33,73.33,73.33,0.0,34.34000000000002,34.33999999999998,34.34,34.34000000000001,34.34000000000002,1.464821375527116e-14,-10.32,-10.92,-10.67,-10.719999999999999,-10.92,0.21897488440458174
1 -> 2,1.1232520000000004,1.1232519999999997,1.123252,1.1232520000000001,1.1232520000000004,3.3306690738754696e-16,73.33,73.33,73.33,73.33,73.33,0.0,34.34000000000002,34.33999999999998,34.34,34.34000000000001,34.34000000000002,1.464821375527116e-14,-4.96,-9.95,-7.635,-7.8149999999999995,-9.95,1.8759064475607516
1 -> 2,1.1232520000000004,1.1232519999999997,1.123252,1.1232520000000001,1.1232520000000004,3.3306690738754696e-16,73.33,73.33,73.33,73.33,73.33,0.0,34.34000000000002,34.33999999999998,34.34,34.34000000000001,34.34000000000002,1.464821375527116e-14,-4.96,-9.95,-7.635,-7.8149999999999995,-9.95,1.8759064475607516
1 -> 2,1.1232520000000004,1.1232519999999997,1.123252,1.1232520000000001,1.1232520000000004,3.3306690738754696e-16,73.33,73.33,73.33,73.33,73.33,0.0,34.34000000000002,34.33999999999998,34.34,34.34000000000001,34.34000000000002,1.464821375527116e-14,2.56,-2.87,-0.04999999999999993,0.05499999999999999,-2.87,2.028607897056501
1 -> 2,1.1232520000000004,1.1232519999999997,1.123252,1.1232520000000001,1.1232520000000004,3.3306690738754696e-16,73.33,73.33,73.33,73.33,73.33,0.0,34.34000000000002,34.33999999999998,34.34,34.34000000000001,34.34000000000002,1.464821375527116e-14,2.56,-2.87,-0.04999999999999993,0.05499999999999999,-2.87,2.028607897056501
1 -> 2,1.1219710000000005,1.1219709999999992,1.1219709999999998,1.121971,1.1219710000000005,5.874748045952207e-16,72.5,72.5,72.5,72.5,72.5,0.0,34.34000000000002,34.33999999999998,34.34,34.34000000000001,34.34000000000002,1.464821375527116e-14,6.05,3.87,5.1025,5.244999999999999,3.87,0.8230241490989191
1 -> 2,1.1219710000000005,1.1219709999999992,1.1219709999999998,1.121971,1.1219710000000005,5.874748045952207e-16,72.5,72.5,72.5,72.5,72.5,0.0,34.34000000000002,34.33999999999998,34.34,34.34000000000001,34.34000000000002,1.464821375527116e-14,6.05,3.87,5.1025,5.244999999999999,3.87,0.8230241490989191
1 -> 2,1.1219710000000005,1.1219709999999992,1.1219709999999998,1.121971,1.1219710000000005,5.874748045952207e-16,72.5,72.5,72.5,72.5,72.5,0.0,34.34000000000002,34.33999999999998,34.34,34.34000000000001,34.34000000000002,1.464821375527116e-14,6.36,6.26,6.3100000000000005,6.3100000000000005,6.26,0.04123105625617669
1 -> 2,1.1219710000000005,1.1219709999999992,1.1219709999999998,1.121971,1.1219710000000005,5.874748045952207e-16,72.5,72.5,72.5,72.5,72.5,0.0,34.34000000000002,34.33999999999998,34.34,34.34000000000001,34.34000000000002,1.464821375527116e-14,6.36,6.26,6.3100000000000005,6.3100000000000005,6.26,0.04123105625617669
1 -> 2,1.1219710000000005,1.1219709999999992,1.1219709999999998,1.121971,1.1219710000000005,5.874748045952207e-16,72.5,72.5,72.5,72.5,72.5,0.0,34.34000000000002,34.33999999999998,34.34,34.34000000000001,34.34000000000002,1.464821375527116e-14,6.23,6.14,6.1775,6.17,6.14,0.03344772040064936
1 -> 2,1.1219710000000005,1.1219709999999992,1.1219709999999998,1.121971,1.1219710000000005,5.874748045952207e-16,72.5,72.5,72.5,72.5,72.5,0.0,34.34000000000002,34.33999999999998,34.34,34.34000000000001,34.34000000000002,1.464821375527116e-14,6.23,6.14,6.1775,6.17,6.14,0.03344772040064936
1 -> 2,1.1219710000000005,1.1219709999999992,1.1219709999999998,1.121971,1.1219710000000005,5.874748045952207e-16,72.5,72.5,72.5,72.5,72.5,0.0,34.34000000000002,34.33999999999998,34.34,34.34000000000001,34.34000000000002,1.464821375527116e-14,6.39,6.29,6.3475,6.355,6.39,0.04380353866983787
1 -> 2,1.1219710000000005,1.1219709999999992,1.1219709999999998,1.121971,1.1219710000000005,5.874748045952207e-16,72.5,72.5,72.5,72.5,72.5,0.0,34.34000000000002,34.33999999999998,34.34,34.34000000000001,34.34000000000002,1.464821375527116e-14,6.39,6.29,6.3475,6.355,6.39,0.04380353866983787
1 -> 2,1.1206910000000005,1.1206909999999994,1.120691,1.1206910000000003,1.1206910000000005,4.577566798522237e-16,72.5,72.5,72.5,72.5,72.5,0.0,34.34000000000002,34.33999999999998,34.34,34.34000000000001,34.34000000000002,1.464821375527116e-14,6.11,4.97,5.5925,5.645,4.97,0.426987997489391
1 -> 2,1.1206910000000005,1.1206909999999994,1.120691,1.1206910000000003,1.1206910000000005,4.577566798522237e-16,72.5,72.5,72.5,72.5,72.5,0.0,34.34000000000002,34.33999999999998,34.34,34.34000000000001,34.34000000000002,1.464821375527116e-14,6.11,4.97,5.5925,5.645,4.97,0.426987997489391
1 -> 2,1.1206910000000005,1.1206909999999994,1.120691,1.1206910000000003,1.1206910000000005,4.577566798522237e-16,72.5,72.5,72.5,72.5,72.5,0.0,34.34000000000002,34.33999999999998,34.34,34.34000000000001,34.34000000000002,1.464821375527116e-14,4.36,2.36,3.345,3.33,2.36,0.7493163550864216
1 -> 2,1.1206910000000005,1.1206909999999994,1.120691,1.1206910000000003,1.1206910000000005,4.577566798522237e-16,72.5,72.5,72.5,72.5,72.5,0.0,34.34000000000002,34.33999999999998,34.34,34.34000000000001,34.34000000000002,1.464821375527116e-14,4.36,2.36,3.345,3.33,2.36,0.7493163550864216
1 -> 2,1.1206910000000005,1.1206909999999994,1.120691,1.1206910000000003,1.1206910000000005,4.577566798522237e-16,72.5,72.5,72.5,72.5,72.5,0.0,34.34000000000002,34.33999999999998,34.34,34.34000000000001,34.34000000000002,1.464821375527116e-14,1.86,0.55,1.2325000000000002,1.26,0.55,0.48504510099577336
1 -> 2,1.1206910000000005,1.1206909999999994,1.120691,1.1206910000000003,1.1206910000000005,4.577566798522237e-16,72.5,72.5,72.5,72.5,72.5,0.0,34.34000000000002,34.33999999999998,34.34,34.34000000000001,34.34000000000002,1.464821375527116e-14,1.86,0.55,1.2325000000000002,1.26,0.55,0.48504510099577336
1 -> 2,1.1206910000000005,1.1206909999999994,1.120691,1.1206910000000003,1.1206910000000005,4.577566798522237e-16,72.5,72.5,72.5,72.5,72.5,0.0,34.34000000000002,34.33999999999998,34.34,34.34000000000001,34.34000000000002,1.464821375527116e-14,-0.16,-3.4,-1.7200000000000002,-1.6600000000000001,-3.4,1.2135073135337915
1 -> 2,1.1206910000000005,1.1206909999999994,1.120691,1.1206910000000003,1.1206910000000005,4.577566798522237e-16,72.5,72.5,72.5,72.5,72.5,0.0,34.34000000000002,34.33999999999998,34.34,34.34000000000001,34.34000000000002,1.464821375527116e-14,-0.16,-3.4,-1.7200000000000002,-1.6600000000000001,-3.4,1.2135073135337915
1 -> 2,1.1181300000000005,1.11813,1.1181300000000003,1.1181300000000003,1.11813,2.220446049250313e-16,72.5,72.5,72.5,72.5,72.5,0.0,34.34000000000002,34.33999999999998,34.34,34.34000000000001,34.34000000000002,1.464821375527116e-14,-4.5,-6.73,-5.7025,-5.79,-6.73,0.833107886170813
1 -> 2,1.1181300000000005,1.11813,1.1181300000000003,1.1181300000000003,1.11813,2.220446049250313e-16,72.5,72.5,72.5,72.5,72.5,0.0,34.34000000000002,34.33999999999998,34.34,34.34000000000001,34.34000000000002,1.464821375527116e-14,-4.5,-6.73,-5.7025,-5.79,-6.73,0.833107886170813
1 -> 2,1.1181300000000005,1.11813,1.1181300000000003,1.1181300000000003,1.11813,2.220446049250313e-16,72.5,72.5,72.5,72.5,72.5,0.0,34.34000000000002,34.33999999999998,34.34,34.34000000000001,34.34000000000002,1.464821375527116e-14,-7.27,-9.01,-8.139999999999999,-8.14,-9.01,0.6507303589045158
1 -> 2,1.1181300000000005,1.11813,1.1181300000000003,1.1181300000000003,1.11813,2.220446049250313e-16,72.5,72.5,72.5,72.5,72.5,0.0,34.34000000000002,34.33999999999998,34.34,34.34000000000001,34.34000000000002,1.464821375527116e-14,-7.27,-9.01,-8.139999999999999,-8.14,-9.01,0.6507303589045158
1 -> 2,1.1181300000000005,1.11813,1.1181300000000003,1.1181300000000003,1.11813,2.220446049250313e-16,72.5,72.5,72.5,72.5,72.5,0.0,34.34000000000002,34.33999999999998,34.34,34.34000000000001,34.34000000000002,1.464821375527116e-14,-8.07,-9.41,-8.9625,-9.185,-9.41,0.5412658773652742
1 -> 2,1.1181300000000005,1.11813,1.1181300000000003,1.1181300000000003,1.11813,2.220446049250313e-16,72.5,72.5,72.5,72.5,72.5,0.0,34.34000000000002,34.33999999999998,34.34,34.34000000000001,34.34000000000002,1.464821375527116e-14,-8.07,-9.41,-8.9625,-9.185,-9.41,0.5412658773652742
1 -> 2,1.1181300000000005,1.11813,1.1181300000000003,1.1181300000000003,1.11813,2.220446049250313e-16,72.5,72.5,72.5,72.5,72.5,0.0,34.34000000000002,34.33999999999998,34.34,34.34000000000001,34.34000000000002,1.464821375527116e-14,-1.2,-6.69,-3.985,-4.025,-6.69,2.053198723942717
1 -> 2,1.1181300000000005,1.11813,1.1181300000000003,1.1181300000000003,1.11813,2.220446049250313e-16,72.5,72.5,72.5,72.5,72.5,0.0,34.34000000000002,34.33999999999998,34.34,34.34000000000001,34.34000000000002,1.464821375527116e-14,-1.2,-6.69,-3.985,-4.025,-6.69,2.053198723942717
1 -> 2,1.1155690000000005,1.1155689999999998,1.1155690000000003,1.1155690000000003,1.1155690000000005,2.9373740229761033e-16,72.5,72.5,72.5,72.5,72.5,0.0,34.34000000000002,34.33999999999998,34.34,34.34000000000001,34.34000000000002,1.464821375527116e-14,3.33,0.47,2.0949999999999998,2.29,0.47,1.0820928795625633
1 -> 2,1.1155690000000005,1.1155689999999998,1.1155690000000003,1.1155690000000003,1.1155690000000005,2.9373740229761033e-16,72.5,72.5,72.5,72.5,72.5,0.0,34.34000000000002,34.33999999999998,34.34,34.34000000000001,34.34000000000002,1.464821375527116e-14,3.33,0.47,2.0949999999999998,2.29,0.47,1.0820928795625633
1 -> 2,1.1155690000000005,1.1155689999999998,1.1155690000000003,1.1155690000000003,1.1155690000000005,2.9373740229761033e-16,72.5,72.5,72.5,72.5,72.5,0.0,34.34000000000002,34.33999999999998,34.34,34.34000000000001,34.34000000000002,1.464821375527116e-14,3.68,3.51,3.605,3.615,3.51,0.061846584384265026
1 -> 2,1.1155690000000005,1.1155689999999998,1.1155690000000003,1.1155690000000003,1.1155690000000005,2.9373740229761033e-16,72.5,72.5,72.5,72.5,72.5,0.0,34.34000000000002,34.33999999999998,34.34,34.34000000000001,34.34000000000002,1.464821375527116e-14,3.68,3.51,3.605,3.615,3.51,0.061846584384265026
1 -> 2,1.1155690000000005,1.1155689999999998,1.1155690000000003,1.1155690000000003,1.1155690000000005,2.9373740229761033e-16,72.5,72.5,72.5,72.5,72.5,0.0,34.34000000000002,34.33999999999998,34.34,34.34000000000001,34.34000000000002,1.464821375527116e-14,3.32,2.55,2.9400000000000004,2.9450000000000003,2.55,0.2885307609250702
1 -> 2,1.1155690000000005,1.1155689999999998,1.1155690000000003,1.1155690000000003,1.1155690000000005,2.9373740229761033e-16,72.5,72.5,72.5,72.5,72.5,0.0,34.34000000000002,34.33999999999998,34.34,34.34000000000001,34.34000000000002,1.464821375527116e-14,3.32,2.55,2.9400000000000004,2.9450000000000003,2.55,0.2885307609250702
1 -> 2,1.1155690000000005,1.1155689999999998,1.1155690000000003,1.1155690000000003,1.1155690000000005,2.9373740229761033e-16,72.5,72.5,72.5,72.5,72.5,0.0,34.34000000000002,34.33999999999998,34.34,34.34000000000001,34.34000000000002,1.464821375527116e-14,2.36,2.18,2.245,2.22,2.18,0.06982120021884458
1 -> 2,1.1155690000000005,1.1155689999999998,1.1155690000000003,1.1155690000000003,1.1155690000000005,2.9373740229761033e-16,72.5,72.5,72.5,72.5,72.5,0.0,34.34000000000002,34.33999999999998,34.34,34.34000000000001,34.34000000000002,1.464821375527116e-14,2.36,2.18,2.245,2.22,2.18,0.06982120021884458
1 -> 2,1.1142890000000005,1.1142889999999992,1.1142889999999999,1.1142890000000003,1.1142890000000005,5.768888059150692e-16,72.2,72.2,72.2,72.2,72.2,0.0,34.34000000000002,34.33999999999998,34.34,34.34000000000001,34.34000000000002,1.464821375527116e-14,2.11,1.2,1.715,1.775,1.2,0.3451448971084463
1 -> 2,1.1142890000000005,1.1142889999999992,1.1142889999999999,1.1142890000000003,1.1142890000000005,5.768888059150692e-16,72.2,72.2,72.2,72.2,72.2,0.0,34.34000000000002,34.33999999999998,34.34,34.34000000000001,34.34000000000002,1.464821375527116e-14,2.11,1.2,1.715,1.775,1.2,0.3451448971084463
1 -> 2,1.1142890000000005,1.1142889999999992,1.1142889999999999,1.1142890000000003,1.1142890000000005,5.768888059150692e-16,72.2,72.2,72.2,72.2,72.2,0.0,34.34000000000002,34.33999999999998,34.34,34.34000000000001,34.34000000000002,1.464821375527116e-14,0.79,0.33,0.48750000000000004,0.41500000000000004,0.33,0.18579222265746217
1 -> 2,1.1142890000000005,1.1142889999999992,1.1142889999999999,1.1142890000000003,1.1142890000000005,5.768888059150692e-16,72.2,72.2,72.2,72.2,72.2,0.0,34.34000000000002,34.33999999999998,34.34,34.34000000000001,34.34000000000002,1.464821375527116e-14,0.79,0.33,0.48750000000000004,0.41500000000000004,0.33,0.18579222265746217
1 -> 2,1.1142890000000005,1.1142889999999992,1.1142889999999999,1.1142890000000003,1.1142890000000005,5.768888059150692e-16,72.2,72.2,72.2,72.2,72.2,0.0,34.34000000000002,34.33999999999998,34.34,34.34000000000001,34.34000000000002,1.464821375527116e-14,0.34,-0.19,0.1275,0.18,-0.19,0.2047406896540109
1 -> 2,1.1142890000000005,1.1142889999999992,1.1142889999999999,1.1142890000000003,1.1142890000000005,5.768888059150692e-16,72.2,72.2,72.2,72.2,72.2,0.0,34.34000000000002,34.33999999999998,34.34,34.34000000000001,34.34000000000002,1.464821375527116e-14,0.34,-0.19,0.1275,0.18,-0.19,0.2047406896540109
1 -> 2,1.1142890000000005,1.1142889999999992,1.1142889999999999,1.1142890000000003,1.1142890000000005,5.768888059150692e-16,72.2,72.2,72.2,72.2,72.2,0.0,34.34000000000002,34.33999999999998,34.34,34.34000000000001,34.34000000000002,1.464821375527116e-14,-0.5,-1.13,-0.85,-0.885,-1.13,0.23738154940938436
1 -> 2,1.1142890000000005,1.1142889999999992,1.1142889999999999,1.1142890000000003,1.1142890000000005,5.768888059150692e-16,72.2,72.2,72.2,72.2,72.2,0.0,34.34000000000002,34.33999999999998,34.34,34.34000000000001,34.34000000000002,1.464821375527116e-14,-0.5,-1.13,-0.85,-0.885,-1.13,0.23738154940938436
1 -> 2,1.1142890000000005,1.1142889999999992,1.1142889999999999,1.1142890000000003,1.1142890000000005,5.768888059150692e-16,72.2,72.2,72.2,72.2,72.2,0.0,34.34000000000002,34.33999999999998,34.34,34.34000000000001,34.34000000000002,1.464821375527116e-14,-1.07,-1.21,-1.16,-1.18,-1.21,0.057445626465380255
1 -> 2,1.1142890000000005,1.1142889999999992,1.1142889999999999,1.1142890000000003,1.1142890000000005,5.768888059150692e-16,72.2,72.2,72.2,72.2,72.2,0.0,34.34000000000002,34.33999999999998,34.34,34.34000000000001,34.34000000000002,1.464821375527116e-14,-1.07,-1.21,-1.16,-1.18,-1.21,0.057445626465380255
1 -> 2,1.1142890000000005,1.1142889999999992,1.1142889999999999,1.1142890000000003,1.1142890000000005,5.768888059150692e-16,72.2,72.2,72.2,72.2,72.2,0.0,34.34000000000002,34.33999999999998,34.34,34.34000000000001,34.34000000000002,1.464821375527116e-14,-1.05,-2.25,-1.5275,-1.405,-2.25,0.46477817289541473
1 -> 2,1.1142890000000005,1.1142889999999992,1.1142889999999999,1.1142890000000003,1.1142890000000005,5.768888059150692e-16,72.2,72.2,72.2,72.2,72.2,0.0,34.34000000000002,34.33999999999998,34.34,34.34000000000001,34.34000000000002,1.464821375527116e-14,-1.05,-2.25,-1.5275,-1.405,-2.25,0.46477817289541473
1 -> 2,1.1142890000000005,1.1142889999999992,1.1142889999999999,1.1142890000000003,1.1142890000000005,5.768888059150692e-16,72.2,72.2,72.2,72.2,72.2,0.0,34.34000000000002,34.33999999999998,34.34,34.34000000000001,34.34000000000002,1.464821375527116e-14,-3.04,-4.83,-4.0425,-4.15,-4.83,0.6806384870105422
1 -> 2,1.1142890000000005,1.1142889999999992,1.1142889999999999,1.1142890000000003,1.1142890000000005,5.768888059150692e-16,72.2,72.2,72.2,72.2,72.2,0.0,34.34000000000002,34.33999999999998,34.34,34.34000000000001,34.34000000000002,1.464821375527116e-14,-3.04,-4.83,-4.0425,-4.15,-4.83,0.6806384870105422
1 -> 2,1.1142890000000005,1.1142889999999992,1.1142889999999999,1.1142890000000003,1.1142890000000005,5.768888059150692e-16,72.2,72.2,72.2,72.2,72.2,0.0,34.34000000000002,34.33999999999998,34.34,34.34000000000001,34.34000000000002,1.464821375527116e-14,-2.11,-4.81,-3.6774999999999998,-3.8949999999999996,-4.81,1.030567198197187
1 -> 2,1.1142890000000005,1.1142889999999992,1.1142889999999999,1.1142890000000003,1.1142890000000005,5.768888059150692e-16,72.2,72.2,72.2,72.2,72.2,0.0,34.34000000000002,34.33999999999998,34.34,34.34000000000001,34.34000000000002,1.464821375527116e-14,-2.11,-4.81,-3.6774999999999998,-3.8949999999999996,-4.81,1.030567198197187
1 -> 2,1.1181300000000005,1.11813,1.1181300000000003,1.1181300000000003,1.11813,2.220446049250313e-16,72.2,72.2,72.2,72.2,72.2,0.0,34.34000000000002,34.33999999999998,34.34,34.34000000000001,34.34000000000002,1.464821375527116e-14,4.09,-0.49,1.9049999999999998,2.01,-0.49,1.7161366495707735
1 -> 2,1.1181300000000005,1.11813,1.1181300000000003,1.1181300000000003,1.11813,2.220446049250313e-16,72.2,72.2,72.2,72.2,72.2,0.0,34.34000000000002,34.33999999999998,34.34,34.34000000000001,34.34000000000002,1.464821375527116e-14,4.09,-0.49,1.9049999999999998,2.01,-0.49,1.7161366495707735
1 -> 2,1.1181300000000005,1.11813,1.1181300000000003,1.1181300000000003,1.11813,2.220446049250313e-16,72.2,72.2,72.2,72.2,72.2,0.0,34.34000000000002,34.33999999999998,34.34,34.34000000000001,34.34000000000002,1.464821375527116e-14,5.47,4.95,5.2775,5.345,4.95,0.19841559918514454
1 -> 2,1.1181300000000005,1.11813,1.1181300000000003,1.1181300000000003,1.11813,2.220446049250313e-16,72.2,72.2,72.2,72.2,72.2,0.0,34.34000000000002,34.33999999999998,34.34,34.34000000000001,34.34000000000002,1.464821375527116e-14,5.47,4.95,5.2775,5.345,4.95,0.19841559918514454
1 -> 2,1.1181300000000005,1.11813,1.1181300000000003,1.1181300000000003,1.11813,2.220446049250313e-16,72.2,72.2,72.2,72.2,72.2,0.0,34.34000000000002,34.33999999999998,34.34,34.34000000000001,34.34000000000002,1.464821375527116e-14,5.0,4.21,4.5675,4.529999999999999,4.21,0.2986950786337131
1 -> 2,1.1181300000000005,1.11813,1.1181300000000003,1.1181300000000003,1.11813,2.220446049250313e-16,72.2,72.2,72.2,72.2,72.2,0.0,34.34000000000002,34.33999999999998,34.34,34.34000000000001,34.34000000000002,1.464821375527116e-14,5.0,4.21,4.5675,4.529999999999999,4.21,0.2986950786337131
1 -> 2,1.1181300000000005,1.11813,1.1181300000000003,1.1181300000000003,1.11813,2.220446049250313e-16,72.2,72.2,72.2,72.2,72.2,0.0,34.34000000000002,34.33999999999998,34.34,34.34000000000001,34.34000000000002,1.464821375527116e-14,4.48,4.14,4.295,4.279999999999999,4.14,0.13086252328302422
1 -> 2,1.1181300000000005,1.11813,1.1181300000000003,1.1181300000000003,1.11813,2.220446049250313e-16,72.2,72.2,72.2,72.2,72.2,0.0,34.34000000000002,34.33999999999998,34.34,34.34000000000001,34.34000000000002,1.464821375527116e-14,4.48,4.14,4.295,4.279999999999999,4.14,0.13086252328302422
1 -> 2,1.1168500000000003,1.1168499999999995,1.1168500000000001,1.1168500000000003,1.1168500000000003,3.6821932062951477e-16,72.2,72.2,72.2,72.2,72.2,0.0,34.34000000000002,34.33999999999998,34.34,34.34000000000001,34.34000000000002,1.464821375527116e-14,4.5,3.56,4.09,4.15,3.56,0.3584689665786985
1 -> 2,1.1168500000000003,1.1168499999999995,1.1168500000000001,1.1168500000000003,1.1168500000000003,3.6821932062951477e-16,72.2,72.2,72.2,72.2,72.2,0.0,34.34000000000002,34.33999999999998,34.34,34.34000000000001,34.34000000000002,1.464821375527116e-14,4.5,3.56,4.09,4.15,3.56,0.3584689665786985
1 -> 2,1.1168500000000003,1.1168499999999995,1.1168500000000001,1.1168500000000003,1.1168500000000003,3.6821932062951477e-16,72.2,72.2,72.2,72.2,72.2,0.0,34.34000000000002,34.33999999999998,34.34,34.34000000000001,34.34000000000002,1.464821375527116e-14,3.2,3.03,3.1025,3.09,3.03,0.07084313657652389
1 -> 2,1.1168500000000003,1.1168499999999995,1.1168500000000001,1.1168500000000003,1.1168500000000003,3.6821932062951477e-16,72.2,72.2,72.2,72.2,72.2,0.0,34.34000000000002,34.33999999999998,34.34,34.34000000000001,34.34000000000002,1.464821375527116e-14,3.2,3.03,3.1025,3.09,3.03,0.07084313657652389
1 -> 2,1.1168500000000003,1.1168499999999995,1.1168500000000001,1.1168500000000003,1.1168500000000003,3.6821932062951477e-16,72.2,72.2,72.2,72.2,72.2,0.0,34.34000000000002,34.33999999999998,34.34,34.34000000000001,34.34000000000002,1.464821375527116e-14,3.16,1.89,2.6425,2.76,1.89,0.48950868225190863
1 -> 2,1.1168500000000003,1.1168499999999995,1.1168500000000001,1.1168500000000003,1.1168500000000003,3.6821932062951477e-16,72.2,72.2,72.2,72.2,72.2,0.0,34.34000000000002,34.33999999999998,34.34,34.34000000000001,34.34000000000002,1.464821375527116e-14,3.16,1.89,2.6425,2.76,1.89,0.48950868225190863
1 -> 2,1.1168500000000003,1.1168499999999995,1.1168500000000001,1.1168500000000003,1.1168500000000003,3.6821932062951477e-16,72.2,72.2,72.2,72.2,72.2,0.0,34.34000000000002,34.33999999999998,34.34,34.34000000000001,34.34000000000002,1.464821375527116e-14,1.17,-0.52,0.26749999999999996,0.21,-0.52,0.6320749559980999
1 -> 2,1.1168500000000003,1.1168499999999995,1.1168500000000001,1.1168500000000003,1.1168500000000003,3.6821932062951477e-16,72.2,72.2,72.2,72.2,72.2,0.0,34.34000000000002,34.33999999999998,34.34,34.34000000000001,34.34000000000002,1.464821375527116e-14,1.17,-0.52,0.26749999999999996,0.21,-0.52,0.6320749559980999
1 -> 2,1.1194110000000004,1.1194109999999997,1.119411,1.1194110000000002,1.1194110000000004,3.3306690738754696e-16,76.33,76.33,76.33,76.33,76.33,0.0,34.33000000000001,34.33,34.330000000000005,34.330000000000005,34.33,7.105427357601002e-15,-0.94,-2.88,-1.8299999999999998,-1.75,-2.88,0.7266704892865816
1 -> 2,1.1194110000000004,1.1194109999999997,1.119411,1.1194110000000002,1.1194110000000004,3.3306690738754696e-16,76.33,76.33,76.33,76.33,76.33,0.0,34.33000000000001,34.33,34.330000000000005,34.330000000000005,34.33,7.105427357601002e-15,-0.94,-2.88,-1.8299999999999998,-1.75,-2.88,0.7266704892865816
1 -> 2,1.1194110000000004,1.1194109999999997,1.119411,1.1194110000000002,1.1194110000000004,3.3306690738754696e-16,76.33,76.33,76.33,76.33,76.33,0.0,34.33000000000001,34.33,34.330000000000005,34.330000000000005,34.33,7.105427357601002e-15,-3.82,-6.6,-5.2475,-5.285,-6.6,1.0393597789023779
1 -> 2,1.1194110000000004,1.1194109999999997,1.119411,1.1194110000000002,1.1194110000000004,3.3306690738754696e-16,76.33,76.33,76.33,76.33,76.33,0.0,34.33000000000001,34.33,34.330000000000005,34.330000000000005,34.33,7.105427357601002e-15,-3.82,-6.6,-5.2475,-5.285,-6.6,1.0393597789023779
1 -> 2,1.1194110000000004,1.1194109999999997,1.119411,1.1194110000000002,1.1194110000000004,3.3306690738754696e-16,76.33,76.33,76.33,76.33,76.33,0.0,34.33000000000001,34.33,34.330000000000005,34.330000000000005,34.33,7.105427357601002e-15,-7.17,-7.63,-7.414999999999999,-7.43,-7.63,0.21148285982556597
1 -> 2,1.1194110000000004,1.1194109999999997,1.119411,1.1194110000000002,1.1194110000000004,3.3306690738754696e-16,76.33,76.33,76.33,76.33,76.33,0.0,34.33000000000001,34.33,34.330000000000005,34.330000000000005,34.33,7.105427357601002e-15,-7.17,-7.63,-7.414999999999999,-7.43,-7.63,0.21148285982556597
1 -> 2,1.1194110000000004,1.1194109999999997,1.119411,1.1194110000000002,1.1194110000000004,3.3306690738754696e-16,76.33,76.33,76.33,76.33,76.33,0.0,34.33000000000001,34.33,34.330000000000005,34.330000000000005,34.33,7.105427357601002e-15,-1.08,-6.21,-3.7575,-3.87,-6.21,1.923101336383499
1 -> 2,1.1194110000000004,1.1194109999999997,1.119411,1.1194110000000002,1.1194110000000004,3.3306690738754696e-16,76.33,76.33,76.33,76.33,76.33,0.0,34.33000000000001,34.33,34.330000000000005,34.330000000000005,34.33,7.105427357601002e-15,-1.08,-6.21,-3.7575,-3.87,-6.21,1.923101336383499
1 -> 2,1.1194110000000004,1.1194109999999997,1.119411,1.1194110000000002,1.1194110000000004,3.3306690738754696e-16,76.33,76.33,76.33,76.33,76.33,0.0,34.33000000000001,34.33,34.330000000000005,34.330000000000005,34.33,7.105427357601002e-15,4.31,0.71,2.675,2.84,0.71,1.3517488672086986
1 -> 2,1.1194110000000004,1.1194109999999997,1.119411,1.1194110000000002,1.1194110000000004,3.3306690738754696e-16,76.33,76.33,76.33,76.33,76.33,0.0,34.33000000000001,34.33,34.330000000000005,34.330000000000005,34.33,7.105427357601002e-15,4.31,0.71,2.675,2.84,0.71,1.3517488672086986
1 -> 2,1.1194110000000004,1.1194109999999997,1.119411,1.1194110000000002,1.1194110000000004,3.3306690738754696e-16,76.33,76.33,76.33,76.33,76.33,0.0,34.33000000000001,34.33,34.330000000000005,34.330000000000005,34.33,7.105427357601002e-15,5.32,4.9,5.1625000000000005,5.215,4.9,0.1575396775418814
1 -> 2,1.1194110000000004,1.1194109999999997,1.119411,1.1194110000000002,1.1194110000000004,3.3306690738754696e-16,76.33,76.33,76.33,76.33,76.33,0.0,34.33000000000001,34.33,34.330000000000005,34.330000000000005,34.33,7.105427357601002e-15,5.32,4.9,5.1625000000000005,5.215,4.9,0.1575396775418814
1 -> 2,1.1194110000000004,1.1194109999999997,1.119411,1.1194110000000002,1.1194110000000004,3.3306690738754696e-16,76.33,76.33,76.33,76.33,76.33,0.0,34.33000000000001,34.33,34.330000000000005,34.330000000000005,34.33,7.105427357601002e-15,4.93,3.68,4.3075,4.3100000000000005,3.68,0.46852828089668175
1 -> 2,1.1194110000000004,1.1194109999999997,1.119411,1.1194110000000002,1.1194110000000004,3.3306690738754696e-16,76.33,76.33,76.33,76.33,76.33,0.0,34.33000000000001,34.33,34.330000000000005,34.330000000000005,34.33,7.105427357601002e-15,4.93,3.68,4.3075,4.3100000000000005,3.68,0.46852828089668175
1 -> 2,1.1194110000000004,1.1194109999999997,1.119411,1.1194110000000002,1.1194110000000004,3.3306690738754696e-16,76.33,76.33,76.33,76.33,76.33,0.0,34.33000000000001,34.33,34.330000000000005,34.330000000000005,34.33,7.105427357601002e-15,3.48,3.28,3.37,3.3600000000000003,3.28,0.07449832212875675
1 -> 2,1.1194110000000004,1.1194109999999997,1.119411,1.1194110000000002,1.1194110000000004,3.3306690738754696e-16,76.33,76.33,76.33,76.33,76.33,0.0,34.33000000000001,34.33,34.330000000000005,34.330000000000005,34.33,7.105427357601002e-15,3.48,3.28,3.37,3.3600000000000003,3.28,0.07449832212875675
1 -> 2,1.1168500000000003,1.1168499999999995,1.1168500000000001,1.1168500000000003,1.1168500000000003,3.6821932062951477e-16,76.33,76.33,76.33,76.33,76.33,0.0,34.33000000000001,34.33,34.330000000000005,34.330000000000005,34.33,7.105427357601002e-15,3.74,3.65,3.7025,3.71,3.65,0.03561951712193761
1 -> 2,1.1168500000000003,1.1168499999999995,1.1168500000000001,1.1168500000000003,1.1168500000000003,3.6821932062951477e-16,76.33,76.33,76.33,76.33,76.33,0.0,34.33000000000001,34.33,34.330000000000005,34.330000000000005,34.33,7.105427357601002e-15,3.74,3.65,3.7025,3.71,3.65,0.03561951712193761
1 -> 2,1.1168500000000003,1.1168499999999995,1.1168500000000001,1.1168500000000003,1.1168500000000003,3.6821932062951477e-16,76.33,76.33,76.33,76.33,76.33,0.0,34.33000000000001,34.33,34.330000000000005,34.330000000000005,34.33,7.105427357601002e-15,3.94,3.69,3.835,3.855,3.69,0.10161200716450787
1 -> 2,1.1168500000000003,1.1168499999999995,1.1168500000000001,1.1168500000000003,1.1168500000000003,3.6821932062951477e-16,76.33,76.33,76.33,76.33,76.33,0.0,34.33000000000001,34.33,34.330000000000005,34.330000000000005,34.33,7.105427357601002e-15,3.94,3.69,3.835,3.855,3.69,0.10161200716450787
1 -> 2,1.1168500000000003,1.1168499999999995,1.1168500000000001,1.1168500000000003,1.1168500000000003,3.6821932062951477e-16,76.33,76.33,76.33,76.33,76.33,0.0,34.33000000000001,34.33,34.330000000000005,34.330000000000005,34.33,7.105427357601002e-15,3.68,1.48,2.6375,2.6950000000000003,1.48,0.8308542290919629
1 -> 2,1.1168500000000003,1.1168499999999995,1.1168500000000001,1.1168500000000003,1.1168500000000003,3.6821932062951477e-16,76.33,76.33,76.33,76.33,76.33,0.0,34.33000000000001,34.33,34.330000000000005,34.330000000000005,34.33,7.105427357601002e-15,3.68,1.48,2.6375,2.6950000000000003,1.48,0.8308542290919629
1 -> 2,1.1168500000000003,1.1168499999999995,1.1168500000000001,1.1168500000000003,1.1168500000000003,3.6821932062951477e-16,76.33,76.33,76.33,76.33,76.33,0.0,34.33000000000001,34.33,34.330000000000005,34.330000000000005,34.33,7.105427357601002e-15,0.9,0.66,0.7925,0.8049999999999999,0.66,0.10473180032826707
1 -> 2,1.1168500000000003,1.1168499999999995,1.1168500000000001,1.1168500000000003,1.1168500000000003,3.6821932062951477e-16,76.33,76.33,76.33,76.33,76.33,0.0,34.33000000000001,34.33,34.330000000000005,34.330000000000005,34.33,7.105427357601002e-15,0.9,0.66,0.7925,0.8049999999999999,0.66,0.10473180032826707
1 -> 2,1.1181300000000005,1.11813,1.1181300000000003,1.1181300000000003,1.11813,2.220446049250313e-16,76.33,76.33,76.33,76.33,76.33,0.0,34.33000000000001,34.33,34.330000000000005,34.330000000000005,34.33,7.105427357601002e-15,0.97,-1.05,0.16999999999999998,0.38,-1.05,0.7801281945936834
1 -> 2,1.1181300000000005,1.11813,1.1181300000000003,1.1181300000000003,1.11813,2.220446049250313e-16,76.33,76.33,76.33,76.33,76.33,0.0,34.33000000000001,34.33,34.330000000000005,34.330000000000005,34.33,7.105427357601002e-15,0.97,-1.05,0.16999999999999998,0.38,-1.05,0.7801281945936834
1 -> 2,1.1181300000000005,1.11813,1.1181300000000003,1.1181300000000003,1.11813,2.220446049250313e-16,76.33,76.33,76.33,76.33,76.33,0.0,34.33000000000001,34.33,34.330000000000005,34.330000000000005,34.33,7.105427357601002e-15,-2.53,-8.02,-5.27,-5.265,-8.02,2.0551277332565
1 -> 2,1.1181300000000005,1.11813,1.1181300000000003,1.1181300000000003,1.11813,2.220446049250313e-16,76.33,76.33,76.33,76.33,76.33,0.0,34.33000000000001,34.33,34.330000000000005,34.330000000000005,34.33,7.105427357601002e-15,-2.53,-8.02,-5.27,-5.265,-8.02,2.0551277332565
1 -> 2,1.1181300000000005,1.11813,1.1181300000000003,1.1181300000000003,1.11813,2.220446049250313e-16,76.33,76.33,76.33,76.33,76.33,0.0,34.33000000000001,34.33,34.330000000000005,34.330000000000005,34.33,7.105427357601002e-15,-9.21,-10.13,-9.7,-9.73,-10.13,0.39338276525541865
1 -> 2,1.1181300000000005,1.11813,1.1181300000000003,1.1181300000000003,1.11813,2.220446049250313e-16,76.33,76.33,76.33,76.33,76.33,0.0,34.33000000000001,34.33,34.330000000000005,34.330000000000005,34.33,7.105427357601002e-15,-9.21,-10.13,-9.7,-9.73,-10.13,0.39338276525541865
1 -> 2,1.1181300000000005,1.11813,1.1181300000000003,1.1181300000000003,1.11813,2.220446049250313e-16,76.33,76.33,76.33,76.33,76.33,0.0,34.33000000000001,34.33,34.330000000000005,34.330000000000005,34.33,7.105427357601002e-15,-4.09,-7.92,-5.9174999999999995,-5.83,-7.92,1.434945556458502
1 -> 2,1.1181300000000005,1.11813,1.1181300000000003,1.1181300000000003,1.11813,2.220446049250313e-16,76.33,76.33,76.33,76.33,76.33,0.0,34.33000000000001,34.33,34.330000000000005,34.330000000000005,34.33,7.105427357601002e-15,-4.09,-7.92,-5.9174999999999995,-5.83,-7.92,1.434945556458502
1 -> 2,1.1142890000000005,1.1142889999999992,1.1142889999999999,1.1142890000000003,1.1142890000000005,5.768888059150692e-16,80.43,80.43,80.43,80.43,80.43,0.0,34.33000000000001,34.33,34.330000000000005,34.330000000000005,34.33,7.105427357601002e-15,-1.0,-3.2,-2.0675,-2.035,-3.2,0.82241640912618
1 -> 2,1.1142890000000005,1.1142889999999992,1.1142889999999999,1.1142890000000003,1.1142890000000005,5.768888059150692e-16,80.43,80.43,80.43,80.43,80.43,0.0,34.33000000000001,34.33,34.330000000000005,34.330000000000005,34.33,7.105427357601002e-15,-1.0,-3.2,-2.0675,-2.035,-3.2,0.82241640912618
1 -> 2,1.1142890000000005,1.1142889999999992,1.1142889999999999,1.1142890000000003,1.1142890000000005,5.768888059150692e-16,80.43,80.43,80.43,80.43,80.43,0.0,34.33000000000001,34.33,34.330000000000005,34.330000000000005,34.33,7.105427357601002e-15,-0.43,-1.25,-0.7324999999999999,-0.625,-1.25,0.31371762781201823
1 -> 2,1.1142890000000005,1.1142889999999992,1.1142889999999999,1.1142890000000003,1.1142890000000005,5.768888059150692e-16,80.43,80.43,80.43,80.43,80.43,0.0,34.33000000000001,34.33,34.330000000000005,34.330000000000005,34.33,7.105427357601002e-15,-0.43,-1.25,-0.7324999999999999,-0.625,-1.25,0.31371762781201823
1 -> 2,1.1142890000000005,1.1142889999999992,1.1142889999999999,1.1142890000000003,1.1142890000000005,5.768888059150692e-16,80.43,80.43,80.43,80.43,80.43,0.0,34.33000000000001,34.33,34.330000000000005,34.330000000000005,34.33,7.105427357601002e-15,-1.87,-2.36,-2.1425,-2.17,-2.36,0.19485571585149866
1 -> 2,1.1142890000000005,1.1142889999999992,1.1142889999999999,1.1142890000000003,1.1142890000000005,5.768888059150692e-16,80.43,80.43,80.43,80.43,80.43,0.0,34.33000000000001,34.33,34.330000000000005,34.330000000000005,34.33,7.105427357601002e-15,-1.87,-2.36,-2.1425,-2.17,-2.36,0.19485571585149866
1 -> 2,1.1142890000000005,1.1142889999999992,1.1142889999999999,1.1142890000000003,1.1142890000000005,5.768888059150692e-16,80.43,80.43,80.43,80.43,80.43,0.0,34.33000000000001,34.33,34.330000000000005,34.330000000000005,34.33,7.105427357601002e-15,-0.9,-1.52,-1.1775,-1.145,-1.52,0.23155722834755124
1 -> 2,1.1142890000000005,1.1142889999999992,1.1142889999999999,1.1142890000000003,1.1142890000000005,5.768888059150692e-16,80.43,80.43,80.43,80.43,80.43,0.0,34.33000000000001,34.33,34.330000000000005,34.330000000000005,34.33,7.105427357601002e-15,-0.9,-1.52,-1.1775,-1.145,-1.52,0.23155722834755124
1 -> 2,1.1104480000000005,1.1104479999999997,1.110448,1.1104480000000003,1.1104480000000005,4.002966042486721e-16,80.43,80.43,80.43,80.43,80.43,0.0,34.33000000000001,34.33,34.330000000000005,34.330000000000005,34.33,7.105427357601002e-15,-2.08,-5.74,-3.895,-3.88,-5.74,1.370939458911297
1 -> 2,1.1104480000000005,1.1104479999999997,1.110448,1.1104480000000003,1.1104480000000005,4.002966042486721e-16,80.43,80.43,80.43,80.43,80.43,0.0,34.33000000000001,34.33,34.330000000000005,34.330000000000005,34.33,7.105427357601002e-15,-2.08,-5.74,-3.895,-3.88,-5.74,1.370939458911297
1 -> 2,1.1104480000000005,1.1104479999999997,1.110448,1.1104480000000003,1.1104480000000005,4.002966042486721e-16,80.43,80.43,80.43,80.43,80.43,0.0,34.33000000000001,34.33,34.330000000000005,34.330000000000005,34.33,7.105427357601002e-15,-6.91,-11.6,-9.095,-8.934999999999999,-11.6,1.7514922209361934
1 -> 2,1.1104480000000005,1.1104479999999997,1.110448,1.1104480000000003,1.1104480000000005,4.002966042486721e-16,80.43,80.43,80.43,80.43,80.43,0.0,34.33000000000001,34.33,34.330000000000005,34.330000000000005,34.33,7.105427357601002e-15,-6.91,-11.6,-9.095,-8.934999999999999,-11.6,1.7514922209361934
1 -> 2,1.1104480000000005,1.1104479999999997,1.110448,1.1104480000000003,1.1104480000000005,4.002966042486721e-16,80.43,80.43,80.43,80.43,80.43,0.0,34.33000000000001,34.33,34.330000000000005,34.330000000000005,34.33,7.105427357601002e-15,-13.77,-19.33,-16.7375,-16.925,-19.33,2.086952023885551
1 -> 2,1.1104480000000005,1.1104479999999997,1.110448,1.1104480000000003,1.1104480000000005,4.002966042486721e-16,80.43,80.43,80.43,80.43,80.43,0.0,34.33000000000001,34.33,34.330000000000005,34.330000000000005,34.33,7.105427357601002e-15,-13.77,-19.33,-16.7375,-16.925,-19.33,2.086952023885551
1 -> 2,1.1104480000000005,1.1104479999999997,1.110448,1.1104480000000003,1.1104480000000005,4.002966042486721e-16,80.43,80.43,80.43,80.43,80.43,0.0,34.33000000000001,34.33,34.330000000000005,34.330000000000005,34.33,7.105427357601002e-15,-20.32,-22.15,-21.275,-21.314999999999998,-22.15,0.6809735677689694
1 -> 2,1.1104480000000005,1.1104479999999997,1.110448,1.1104480000000003,1.1104480000000005,4.002966042486721e-16,80.43,80.43,80.43,80.43,80.43,0.0,34.33000000000001,34.33,34.330000000000005,34.330000000000005,34.33,7.105427357601002e-15,-20.32,-22.15,-21.275,-21.314999999999998,-22.15,0.6809735677689694
1 -> 2,1.1142890000000005,1.1142889999999992,1.1142889999999999,1.1142890000000003,1.1142890000000005,5.768888059150692e-16,80.43,80.43,80.43,80.43,80.43,0.0,34.33000000000001,34.33,34.330000000000005,34.330000000000005,34.33,7.105427357601002e-15,-21.72,-22.67,-22.335,-22.475,-22.67,0.3688156721182012
1 -> 2,1.1142890000000005,1.1142889999999992,1.1142889999999999,1.1142890000000003,1.1142890000000005,5.768888059150692e-16,80.43,80.43,80.43,80.43,80.43,0.0,34.33000000000001,34.33,34.330000000000005,34.330000000000005,34.33,7.105427357601002e-15,-21.72,-22.67,-22.335,-22.475,-22.67,0.3688156721182012
1 -> 2,1.1142890000000005,1.1142889999999992,1.1142889999999999,1.1142890000000003,1.1142890000000005,5.768888059150692e-16,80.43,80.43,80.43,80.43,80.43,0.0,34.33000000000001,34.33,34.330000000000005,34.330000000000005,34.33,7.105427357601002e-15,-16.58,-20.77,-18.805,-18.935000000000002,-20.77,1.563977301625571
1 -> 2,1.1142890000000005,1.1142889999999992,1.1142889999999999,1.1142890000000003,1.1142890000000005,5.768888059150692e-16,80.43,80.43,80.43,80.43,80.43,0.0,34.33000000000001,34.33,34.330000000000005,34.330000000000005,34.33,7.105427357601002e-15,-16.58,-20.77,-18.805,-18.935000000000002,-20.77,1.563977301625571
1 -> 2,1.1142890000000005,1.1142889999999992,1.1142889999999999,1.1142890000000003,1.1142890000000005,5.768888059150692e-16,80.43,80.43,80.43,80.43,80.43,0.0,34.33000000000001,34.33,34.330000000000005,34.330000000000005,34.33,7.105427357601002e-15,-7.62,-14.55,-11.042499999999999,-11.0,-14.55,2.5955671345584577
1 -> 2,1.1142890000000005,1.1142889999999992,1.1142889999999999,1.1142890000000003,1.1142890000000005,5.768888059150692e-16,80.43,80.43,80.43,80.43,80.43,0.0,34.33000000000001,34.33,34.330000000000005,34.330000000000005,34.33,7.105427357601002e-15,-7.62,-14.55,-11.042499999999999,-11.0,-14.55,2.5955671345584577
1 -> 2,1.1142890000000005,1.1142889999999992,1.1142889999999999,1.1142890000000003,1.1142890000000005,5.768888059150692e-16,80.43,80.43,80.43,80.43,80.43,0.0,34.33000000000001,34.33,34.330000000000005,34.330000000000005,34.33,7.105427357601002e-15,-4.8,-5.97,-5.2299999999999995,-5.075,-5.97,0.4424364361125787
1 -> 2,1.1142890000000005,1.1142889999999992,1.1142889999999999,1.1142890000000003,1.1142890000000005,5.768888059150692e-16,80.43,80.43,80.43,80.43,80.43,0.0,34.33000000000001,34.33,34.330000000000005,34.330000000000005,34.33,7.105427357601002e-15,-4.8,-5.97,-5.2299999999999995,-5.075,-5.97,0.4424364361125787
1 -> 2,1.1091670000000005,1.109167,1.1091670000000002,1.1091670000000005,1.1091670000000005,2.220446049250313e-16,80.43,80.43,80.43,80.43,80.43,0.0,34.33000000000001,34.33,34.330000000000005,34.330000000000005,34.33,7.105427357601002e-15,-5.71,-7.1,-6.51,-6.615,-7.1,0.5339007398384085
1 -> 2,1.1091670000000005,1.109167,1.1091670000000002,1.1091670000000005,1.1091670000000005,2.220446049250313e-16,80.43,80.43,80.43,80.43,80.43,0.0,34.33000000000001,34.33,34.330000000000005,34.330000000000005,34.33,7.105427357601002e-15,-5.71,-7.1,-6.51,-6.615,-7.1,0.5339007398384085
1 -> 2,1.1091670000000005,1.109167,1.1091670000000002,1.1091670000000005,1.1091670000000005,2.220446049250313e-16,80.43,80.43,80.43,80.43,80.43,0.0,34.33000000000001,34.33,34.330000000000005,34.330000000000005,34.33,7.105427357601002e-15,-5.82,-7.04,-6.4750000000000005,-6.52,-7.04,0.46073311146476104
1 -> 2,1.1091670000000005,1.109167,1.1091670000000002,1.1091670000000005,1.1091670000000005,2.220446049250313e-16,80.43,80.43,80.43,80.43,80.43,0.0,34.33000000000001,34.33,34.330000000000005,34.330000000000005,34.33,7.105427357601002e-15,-5.82,-7.04,-6.4750000000000005,-6.52,-7.04,0.46073311146476104
1 -> 2,1.1091670000000005,1.109167,1.1091670000000002,1.1091670000000005,1.1091670000000005,2.220446049250313e-16,80.43,80.43,80.43,80.43,80.43,0.0,34.33000000000001,34.33,34.330000000000005,34.330000000000005,34.33,7.105427357601002e-15,-3.34,-5.34,-4.4425,-4.545,-5.34,0.7463368877390424
1 -> 2,1.1091670000000005,1.109167,1.1091670000000002,1.1091670000000005,1.1091670000000005,2.220446049250313e-16,80.43,80.43,80.43,80.43,80.43,0.0,34.33000000000001,34.33,34.330000000000005,34.330000000000005,34.33,7.105427357601002e-15,-3.34,-5.34,-4.4425,-4.545,-5.34,0.7463368877390424
1 -> 2,1.1091670000000005,1.109167,1.1091670000000002,1.1091670000000005,1.1091670000000005,2.220446049250313e-16,80.43,80.43,80.43,80.43,80.43,0.0,34.33000000000001,34.33,34.330000000000005,34.330000000000005,34.33,7.105427357601002e-15,6.33,-1.93,1.885,1.57,-1.93,3.1018905525501705
1 -> 2,1.1091670000000005,1.109167,1.1091670000000002,1.1091670000000005,1.1091670000000005,2.220446049250313e-16,80.43,80.43,80.43,80.43,80.43,0.0,34.33000000000001,34.33,34.330000000000005,34.330000000000005,34.33,7.105427357601002e-15,6.33,-1.93,1.885,1.57,-1.93,3.1018905525501705
1 -> 2,1.1130080000000004,1.1130079999999996,1.113008,1.1130080000000002,1.1130080000000004,4.002966042486721e-16,83.12,83.12,83.12,83.12,83.12,0.0,34.34000000000002,34.33999999999998,34.34,34.34000000000001,34.34000000000002,1.464821375527116e-14,16.4,9.82,13.59,14.07,9.82,2.508435767565117
1 -> 2,1.1130080000000004,1.1130079999999996,1.113008,1.1130080000000002,1.1130080000000004,4.002966042486721e-16,83.12,83.12,83.12,83.12,83.12,0.0,34.34000000000002,34.33999999999998,34.34,34.34000000000001,34.34000000000002,1.464821375527116e-14,16.4,9.82,13.59,14.07,9.82,2.508435767565117
1 -> 2,1.1130080000000004,1.1130079999999996,1.113008,1.1130080000000002,1.1130080000000004,4.002966042486721e-16,83.12,83.12,83.12,83.12,83.12,0.0,34.34000000000002,34.33999999999998,34.34,34.34000000000001,34.34000000000002,1.464821375527116e-14,16.5,12.65,14.805,15.035,12.65,1.4629849623287317
1 -> 2,1.1130080000000004,1.1130079999999996,1.113008,1.1130080000000002,1.1130080000000004,4.002966042486721e-16,83.12,83.12,83.12,83.12,83.12,0.0,34.34000000000002,34.33999999999998,34.34,34.34000000000001,34.34000000000002,1.464821375527116e-14,16.5,12.65,14.805,15.035,12.65,1.4629849623287317
1 -> 2,1.1130080000000004,1.1130079999999996,1.113008,1.1130080000000002,1.1130080000000004,4.002966042486721e-16,83.12,83.12,83.12,83.12,83.12,0.0,34.34000000000002,34.33999999999998,34.34,34.34000000000001,34.34000000000002,1.464821375527116e-14,10.81,5.05,7.9275,7.925000000000001,5.05,2.1500043604606947
1 -> 2,1.1130080000000004,1.1130079999999996,1.113008,1.1130080000000002,1.1130080000000004,4.002966042486721e-16,83.12,83.12,83.12,83.12,83.12,0.0,34.34000000000002,34.33999999999998,34.34,34.34000000000001,34.34000000000002,1.464821375527116e-14,10.81,5.05,7.9275,7.925000000000001,5.05,2.1500043604606947
1 -> 2,1.1130080000000004,1.1130079999999996,1.113008,1.1130080000000002,1.1130080000000004,4.002966042486721e-16,83.12,83.12,83.12,83.12,83.12,0.0,34.34000000000002,34.33999999999998,34.34,34.34000000000001,34.34000000000002,1.464821375527116e-14,3.33,1.32,2.02,1.7149999999999999,1.32,0.800968164161348
1 -> 2,1.1130080000000004,1.1130079999999996,1.113008,1.1130080000000002,1.1130080000000004,4.002966042486721e-16,83.12,83.12,83.12,83.12,83.12,0.0,34.34000000000002,34.33999999999998,34.34,34.34000000000001,34.34000000000002,1.464821375527116e-14,3.33,1.32,2.02,1.7149999999999999,1.32,0.800968164161348
1 -> 2,1.1322150000000004,1.1322149999999995,1.1322150000000002,1.1322150000000004,1.1322150000000004,3.6821932062951477e-16,83.12,83.12,83.12,83.12,83.12,0.0,34.34000000000002,34.33999999999998,34.34,34.34000000000001,34.34000000000002,1.464821375527116e-14,10.26,2.37,5.915,5.515000000000001,2.37,2.969734836647878
1 -> 2,1.1322150000000004,1.1322149999999995,1.1322150000000002,1.1322150000000004,1.1322150000000004,3.6821932062951477e-16,83.12,83.12,83.12,83.12,83.12,0.0,34.34000000000002,34.33999999999998,34.34,34.34000000000001,34.34000000000002,1.464821375527116e-14,10.26,2.37,5.915,5.515000000000001,2.37,2.969734836647878
1 -> 2,1.1322150000000004,1.1322149999999995,1.1322150000000002,1.1322150000000004,1.1322150000000004,3.6821932062951477e-16,83.12,83.12,83.12,83.12,83.12,0.0,34.34000000000002,34.33999999999998,34.34,34.34000000000001,34.34000000000002,1.464821375527116e-14,27.39,14.33,20.9725,21.085,14.33,4.886268387020918
1 -> 2,1.1322150000000004,1.1322149999999995,1.1322150000000002,1.1322150000000004,1.1322150000000004,3.6821932062951477e-16,83.12,83.12,83.12,83.12,83.12,0.0,34.34000000000002,34.33999999999998,34.34,34.34000000000001,34.34000000000002,1.464821375527116e-14,27.39,14.33,20.9725,21.085,14.33,4.886268387020918
1 -> 2,1.1322150000000004,1.1322149999999995,1.1322150000000002,1.1322150000000004,1.1322150000000004,3.6821932062951477e-16,83.12,83.12,83.12,83.12,83.12,0.0,34.34000000000002,34.33999999999998,34.34,34.34000000000001,34.34000000000002,1.464821375527116e-14,33.45,30.53,32.4675,32.945,30.53,1.1712466648831927
1 -> 2,1.1322150000000004,1.1322149999999995,1.1322150000000002,1.1322150000000004,1.1322150000000004,3.6821932062951477e-16,83.12,83.12,83.12,83.12,83.12,0.0,34.34000000000002,34.33999999999998,34.34,34.34000000000001,34.34000000000002,1.464821375527116e-14,33.45,30.53,32.4675,32.945,30.53,1.1712466648831927
1 -> 2,1.1322150000000004,1.1322149999999995,1.1322150000000002,1.1322150000000004,1.1322150000000004,3.6821932062951477e-16,83.12,83.12,83.12,83.12,83.12,0.0,34.34000000000002,34.33999999999998,34.34,34.34000000000001,34.34000000000002,1.464821375527116e-14,32.26,21.91,27.724999999999998,28.365000000000002,21.91,3.909952045741737
1 -> 2,1.1322150000000004,1.1322149999999995,1.1322150000000002,1.1322150000000004,1.1322150000000004,3.6821932062951477e-16,83.12,83.12,83.12,83.12,83.12,0.0,34.34000000000002,34.33999999999998,34.34,34.34000000000001,34.34000000000002,1.464821375527116e-14,32.26,21.91,27.724999999999998,28.365000000000002,21.91,3.909952045741737
1 -> 2,1.1744680000000005,1.1744679999999998,1.174468,1.1744680000000003,1.1744680000000005,3.3306690738754696e-16,83.12,83.12,83.12,83.12,83.12,0.0,34.34000000000002,34.33999999999998,34.34,34.34000000000001,34.34000000000002,1.464821375527116e-14,16.28,2.09,8.6325,8.08,2.09,5.340900556086025
1 -> 2,1.1744680000000005,1.1744679999999998,1.174468,1.1744680000000003,1.1744680000000005,3.3306690738754696e-16,83.12,83.12,83.12,83.12,83.12,0.0,34.34000000000002,34.33999999999998,34.34,34.34000000000001,34.34000000000002,1.464821375527116e-14,16.28,2.09,8.6325,8.08,2.09,5.340900556086025
1 -> 2,1.1744680000000005,1.1744679999999998,1.174468,1.1744680000000003,1.1744680000000005,3.3306690738754696e-16,83.12,83.12,83.12,83.12,83.12,0.0,34.34000000000002,34.33999999999998,34.34,34.34000000000001,34.34000000000002,1.464821375527116e-14,0.08,-2.26,-1.1275,-1.165,-2.26,0.8540308835165153
1 -> 2,1.1744680000000005,1.1744679999999998,1.174468,1.1744680000000003,1.1744680000000005,3.3306690738754696e-16,83.12,83.12,83.12,83.12,83.12,0.0,34.34000000000002,34.33999999999998,34.34,34.34000000000001,34.34000000000002,1.464821375527116e-14,0.08,-2.26,-1.1275,-1.165,-2.26,0.8540308835165153
1 -> 2,1.1744680000000005,1.1744679999999998,1.174468,1.1744680000000003,1.1744680000000005,3.3306690738754696e-16,83.12,83.12,83.12,83.12,83.12,0.0,34.34000000000002,34.33999999999998,34.34,34.34000000000001,34.34000000000002,1.464821375527116e-14,-3.49,-8.31,-5.887499999999999,-5.875,-8.31,1.801254770986048
1 -> 2,1.1744680000000005,1.1744679999999998,1.174468,1.1744680000000003,1.1744680000000005,3.3306690738754696e-16,83.12,83.12,83.12,83.12,83.12,0.0,34.34000000000002,34.33999999999998,34.34,34.34000000000001,34.34000000000002,1.464821375527116e-14,-3.49,-8.31,-5.887499999999999,-5.875,-8.31,1.801254770986048
1 -> 2,1.1744680000000005,1.1744679999999998,1.174468,1.1744680000000003,1.1744680000000005,3.3306690738754696e-16,83.12,83.12,83.12,83.12,83.12,0.0,34.34000000000002,34.33999999999998,34.34,34.34000000000001,34.34000000000002,1.464821375527116e-14,-9.92,-14.76,-12.4125,-12.485,-14.76,1.8186722491971994
1 -> 2,1.1744680000000005,1.1744679999999998,1.174468,1.1744680000000003,1.1744680000000005,3.3306690738754696e-16,83.12,83.12,83.12,83.12,83.12,0.0,34.34000000000002,34.33999999999998,34.34,34.34000000000001,34.34000000000002,1.464821375527116e-14,-9.92,-14.76,-12.4125,-12.485,-14.76,1.8186722491971994
1 -> 2,1.1821500000000005,1.18215,1.1821500000000003,1.1821500000000003,1.18215,2.220446049250313e-16,83.12,83.12,83.12,83.12,83.12,0.0,34.34000000000002,34.33999999999998,34.34,34.34000000000001,34.34000000000002,1.464821375527116e-14,-6.97,-15.28,-12.032499999999999,-12.940000000000001,-15.28,3.2282532041337775
1 -> 2,1.1821500000000005,1.18215,1.1821500000000003,1.1821500000000003,1.18215,2.220446049250313e-16,83.12,83.12,83.12,83.12,83.12,0.0,34.34000000000002,34.33999999999998,34.34,34.34000000000001,34.34000000000002,1.464821375527116e-14,-6.97,-15.28,-12.032499999999999,-12.940000000000001,-15.28,3.2282532041337775
1 -> 2,1.1821500000000005,1.18215,1.1821500000000003,1.1821500000000003,1.18215,2.220446049250313e-16,83.12,83.12,83.12,83.12,83.12,0.0,34.34000000000002,34.33999999999998,34.34,34.34000000000001,34.34000000000002,1.464821375527116e-14,19.12,-0.98,9.175,9.280000000000001,-0.98,7.516520139000494
1 -> 2,1.1821500000000005,1.18215,1.1821500000000003,1.1821500000000003,1.18215,2.220446049250313e-16,83.12,83.12,83.12,83.12,83.12,0.0,34.34000000000002,34.33999999999998,34.34,34.34000000000001,34.34000000000002,1.464821375527116e-14,19.12,-0.98,9.175,9.280000000000001,-0.98,7.516520139000494
1 -> 2,1.1821500000000005,1.18215,1.1821500000000003,1.1821500000000003,1.18215,2.220446049250313e-16,83.12,83.12,83.12,83.12,83.12,0.0,34.34000000000002,34.33999999999998,34.34,34.34000000000001,34.34000000000002,1.464821375527116e-14,30.45,24.37,28.235,29.060000000000002,24.37,2.4065483581262184
1 -> 2,1.1821500000000005,1.18215,1.1821500000000003,1.1821500000000003,1.18215,2.220446049250313e-16,83.12,83.12,83.12,83.12,83.12,0.0,34.34000000000002,34.33999999999998,34.34,34.34000000000001,34.34000000000002,1.464821375527116e-14,30.45,24.37,28.235,29.060000000000002,24.37,2.4065483581262184
1 -> 2,1.1821500000000005,1.18215,1.1821500000000003,1.1821500000000003,1.18215,2.220446049250313e-16,83.12,83.12,83.12,83.12,83.12,0.0,34.34000000000002,34.33999999999998,34.34,34.34000000000001,34.34000000000002,1.464821375527116e-14,29.73,26.44,27.982499999999998,27.88,26.44,1.2448167535826304
1 -> 2,1.1821500000000005,1.18215,1.1821500000000003,1.1821500000000003,1.18215,2.220446049250313e-16,83.12,83.12,83.12,83.12,83.12,0.0,34.34000000000002,34.33999999999998,34.34,34.34000000000001,34.34000000000002,1.464821375527116e-14,29.73,26.44,27.982499999999998,27.88,26.44,1.2448167535826304
1 -> 2,1.2077590000000005,1.2077589999999994,1.207759,1.2077590000000002,1.2077590000000005,4.577566798522237e-16,85.33,85.33,85.33,85.33,85.33,0.0,34.33000000000001,34.33,34.330000000000005,34.330000000000005,34.33,7.105427357601002e-15,27.11,26.1,26.5075,26.41,26.1,0.39625591478235295
1 -> 2,1.2077590000000005,1.2077589999999994,1.207759,1.2077590000000002,1.2077590000000005,4.577566798522237e-16,85.33,85.33,85.33,85.33,85.33,0.0,34.33000000000001,34.33,34.330000000000005,34.330000000000005,34.33,7.105427357601002e-15,27.11,26.1,26.5075,26.41,26.1,0.39625591478235295
1 -> 2,1.2077590000000005,1.2077589999999994,1.207759,1.2077590000000002,1.2077590000000005,4.577566798522237e-16,85.33,85.33,85.33,85.33,85.33,0.0,34.33000000000001,34.33,34.330000000000005,34.330000000000005,34.33,7.105427357601002e-15,27.49,25.94,26.97,27.225,25.94,0.6307535176279234
1 -> 2,1.2077590000000005,1.2077589999999994,1.207759,1.2077590000000002,1.2077590000000005,4.577566798522237e-16,85.33,85.33,85.33,85.33,85.33,0.0,34.33000000000001,34.33,34.330000000000005,34.330000000000005,34.33,7.105427357601002e-15,27.49,25.94,26.97,27.225,25.94,0.6307535176279234
1 -> 2,1.2077590000000005,1.2077589999999994,1.207759,1.2077590000000002,1.2077590000000005,4.577566798522237e-16,85.33,85.33,85.33,85.33,85.33,0.0,34.33000000000001,34.33,34.330000000000005,34.330000000000005,34.33,7.105427357601002e-15,24.55,20.36,22.425,22.395,20.36,1.5588537455451041
1 -> 2,1.2077590000000005,1.2077589999999994,1.207759,1.2077590000000002,1.2077590000000005,4.577566798522237e-16,85.33,85.33,85.33,85.33,85.33,0.0,34.33000000000001,34.33,34.330000000000005,34.330000000000005,34.33,7.105427357601002e-15,24.55,20.36,22.425,22.395,20.36,1.5588537455451041
1 -> 2,1.2077590000000005,1.2077589999999994,1.207759,1.2077590000000002,1.2077590000000005,4.577566798522237e-16,85.33,85.33,85.33,85.33,85.33,0.0,34.33000000000001,34.33,34.330000000000005,34.330000000000005,34.33,7.105427357601002e-15,18.64,6.5,13.280000000000001,13.99,6.5,4.576745568632804
1 -> 2,1.2077590000000005,1.2077589999999994,1.207759,1.2077590000000002,1.2077590000000005,4.577566798522237e-16,85.33,85.33,85.33,85.33,85.33,0.0,34.33000000000001,34.33,34.330000000000005,34.330000000000005,34.33,7.105427357601002e-15,18.64,6.5,13.280000000000001,13.99,6.5,4.576745568632804
1 -> 2,1.2256840000000004,1.2256839999999998,1.2256840000000002,1.2256840000000002,1.2256840000000004,2.9373740229761033e-16,85.33,85.33,85.33,85.33,85.33,0.0,34.33000000000001,34.33,34.330000000000005,34.330000000000005,34.33,7.105427357601002e-15,-0.03,-17.79,-9.4275,-9.945,-17.79,6.667354704078672
1 -> 2,1.2256840000000004,1.2256839999999998,1.2256840000000002,1.2256840000000002,1.2256840000000004,2.9373740229761033e-16,85.33,85.33,85.33,85.33,85.33,0.0,34.33000000000001,34.33,34.330000000000005,34.330000000000005,34.33,7.105427357601002e-15,-0.03,-17.79,-9.4275,-9.945,-17.79,6.667354704078672
1 -> 2,1.2256840000000004,1.2256839999999998,1.2256840000000002,1.2256840000000002,1.2256840000000004,2.9373740229761033e-16,85.33,85.33,85.33,85.33,85.33,0.0,34.33000000000001,34.33,34.330000000000005,34.330000000000005,34.33,7.105427357601002e-15,-20.88,-26.26,-23.5125,-23.455,-26.26,1.9726806000972394
1 -> 2,1.2256840000000004,1.2256839999999998,1.2256840000000002,1.2256840000000002,1.2256840000000004,2.9373740229761033e-16,85.33,85.33,85.33,85.33,85.33,0.0,34.33000000000001,34.33,34.330000000000005,34.330000000000005,34.33,7.105427357601002e-15,-20.88,-26.26,-23.5125,-23.455,-26.26,1.9726806000972394
1 -> 2,1.2256840000000004,1.2256839999999998,1.2256840000000002,1.2256840000000002,1.2256840000000004,2.9373740229761033e-16,85.33,85.33,85.33,85.33,85.33,0.0,34.33000000000001,34.33,34.330000000000005,34.330000000000005,34.33,7.105427357601002e-15,-29.54,-43.69,-36.5975,-36.58,-43.69,5.317834968293018
1 -> 2,1.2256840000000004,1.2256839999999998,1.2256840000000002,1.2256840000000002,1.2256840000000004,2.9373740229761033e-16,85.33,85.33,85.33,85.33,85.33,0.0,34.33000000000001,34.33,34.330000000000005,34.330000000000005,34.33,7.105427357601002e-15,-29.54,-43.69,-36.5975,-36.58,-43.69,5.317834968293018
1 -> 2,1.2256840000000004,1.2256839999999998,1.2256840000000002,1.2256840000000002,1.2256840000000004,2.9373740229761033e-16,85.33,85.33,85.33,85.33,85.33,0.0,34.33000000000001,34.33,34.330000000000005,34.330000000000005,34.33,7.105427357601002e-15,-39.56,-46.73,-44.26,-45.375,-46.73,2.8833053948550074
1 -> 2,1.2256840000000004,1.2256839999999998,1.2256840000000002,1.2256840000000002,1.2256840000000004,2.9373740229761033e-16,85.33,85.33,85.33,85.33,85.33,0.0,34.33000000000001,34.33,34.330000000000005,34.330000000000005,34.33,7.105427357601002e-15,-39.56,-46.73,-44.26,-45.375,-46.73,2.8833053948550074
1 -> 2,1.3306780000000005,1.330678,1.3306780000000005,1.3306780000000005,1.3306780000000005,2.220446049250313e-16,85.33,85.33,85.33,85.33,85.33,0.0,34.33000000000001,34.33,34.330000000000005,34.330000000000005,34.33,7.105427357601002e-15,-14.15,-33.51,-23.7525,-23.675,-33.51,7.2240790935592605
1 -> 2,1.3306780000000005,1.330678,1.3306780000000005,1.3306780000000005,1.3306780000000005,2.220446049250313e-16,85.33,85.33,85.33,85.33,85.33,0.0,34.33000000000001,34.33,34.330000000000005,34.330000000000005,34.33,7.105427357601002e-15,-14.15,-33.51,-23.7525,-23.675,-33.51,7.2240790935592605
1 -> 2,1.3306780000000005,1.330678,1.3306780000000005,1.3306780000000005,1.3306780000000005,2.220446049250313e-16,85.33,85.33,85.33,85.33,85.33,0.0,34.33000000000001,34.33,34.330000000000005,34.330000000000005,34.33,7.105427357601002e-15,19.85,-7.68,5.3325000000000005,4.58,-7.68,10.303478478164548
1 -> 2,1.3306780000000005,1.330678,1.3306780000000005,1.3306780000000005,1.3306780000000005,2.220446049250313e-16,85.33,85.33,85.33,85.33,85.33,0.0,34.33000000000001,34.33,34.330000000000005,34.330000000000005,34.33,7.105427357601002e-15,19.85,-7.68,5.3325000000000005,4.58,-7.68,10.303478478164548
1 -> 2,1.3306780000000005,1.330678,1.3306780000000005,1.3306780000000005,1.3306780000000005,2.220446049250313e-16,85.33,85.33,85.33,85.33,85.33,0.0,34.33000000000001,34.33,34.330000000000005,34.330000000000005,34.33,7.105427357601002e-15,40.75,30.12,36.6125,37.790000000000006,30.12,3.938441157361628
1 -> 2,1.3306780000000005,1.330678,1.3306780000000005,1.3306780000000005,1.3306780000000005,2.220446049250313e-16,85.33,85.33,85.33,85.33,85.33,0.0,34.33000000000001,34.33,34.330000000000005,34.330000000000005,34.33,7.105427357601002e-15,40.75,30.12,36.6125,37.790000000000006,30.12,3.938441157361628
1 -> 2,1.3306780000000005,1.330678,1.3306780000000005,1.3306780000000005,1.3306780000000005,2.220446049250313e-16,85.33,85.33,85.33,85.33,85.33,0.0,34.33000000000001,34.33,34.330000000000005,34.330000000000005,34.33,7.105427357601002e-15,28.98,-9.59,9.462500000000002,9.23,-9.59,14.48736410635144
1 -> 2,1.3306780000000005,1.330678,1.3306780000000005,1.3306780000000005,1.3306780000000005,2.220446049250313e-16,85.33,85.33,85.33,85.33,85.33,0.0,34.33000000000001,34.33,34.330000000000005,34.330000000000005,34.33,7.105427357601002e-15,28.98,-9.59,9.462500000000002,9.23,-9.59,14.48736410635144
1 -> 2,1.2973870000000005,1.2973869999999994,1.2973870000000003,1.2973870000000005,1.2973870000000005,4.710277376051325e-16,85.33,85.33,85.33,85.33,85.33,0.0,34.33000000000001,34.33,34.330000000000005,34.330000000000005,34.33,7.105427357601002e-15,-18.24,-35.15,-26.697499999999998,-26.7,-35.15,6.234462186107154
1 -> 2,1.2973870000000005,1.2973869999999994,1.2973870000000003,1.2973870000000005,1.2973870000000005,4.710277376051325e-16,85.33,85.33,85.33,85.33,85.33,0.0,34.33000000000001,34.33,34.330000000000005,34.330000000000005,34.33,7.105427357601002e-15,-18.24,-35.15,-26.697499999999998,-26.7,-35.15,6.234462186107154
1 -> 2,1.2973870000000005,1.2973869999999994,1.2973870000000003,1.2973870000000005,1.2973870000000005,4.710277376051325e-16,85.33,85.33,85.33,85.33,85.33,0.0,34.33000000000001,34.33,34.330000000000005,34.330000000000005,34.33,7.105427357601002e-15,-43.08,-62.07,-54.4475,-56.32,-62.07,7.493318273635521
1 -> 2,1.2973870000000005,1.2973869999999994,1.2973870000000003,1.2973870000000005,1.2973870000000005,4.710277376051325e-16,85.33,85.33,85.33,85.33,85.33,0.0,34.33000000000001,34.33,34.330000000000005,34.330000000000005,34.33,7.105427357601002e-15,-43.08,-62.07,-54.4475,-56.32,-62.07,7.493318273635521
1 -> 2,1.2973870000000005,1.2973869999999994,1.2973870000000003,1.2973870000000005,1.2973870000000005,4.710277376051325e-16,85.33,85.33,85.33,85.33,85.33,0.0,34.33000000000001,34.33,34.330000000000005,34.330000000000005,34.33,7.105427357601002e-15,28.17,-54.11,-16.822499999999998,-20.675,-54.11,31.04112061040967
1 -> 2,1.2973870000000005,1.2973869999999994,1.2973870000000003,1.2973870000000005,1.2973870000000005,4.710277376051325e-16,85.33,85.33,85.33,85.33,85.33,0.0,34.33000000000001,34.33,34.330000000000005,34.330000000000005,34.33,7.105427357601002e-15,28.17,-54.11,-16.822499999999998,-20.675,-54.11,31.04112061040967
1 -> 2,1.2973870000000005,1.2973869999999994,1.2973870000000003,1.2973870000000005,1.2973870000000005,4.710277376051325e-16,85.33,85.33,85.33,85.33,85.33,0.0,34.33000000000001,34.33,34.330000000000005,34.330000000000005,34.33,7.105427357601002e-15,135.42,64.47,105.975,112.005,64.47,27.386743599778338
1 -> 2,1.2973870000000005,1.2973869999999994,1.2973870000000003,1.2973870000000005,1.2973870000000005,4.710277376051325e-16,85.33,85.33,85.33,85.33,85.33,0.0,34.33000000000001,34.33,34.330000000000005,34.330000000000005,34.33,7.105427357601002e-15,135.42,64.47,105.975,112.005,64.47,27.386743599778338
1 -> 2,1.2948260000000005,1.2948259999999996,1.294826,1.294826,1.2948259999999996,4.440892098500626e-16,87.2,87.2,87.2,87.2,87.2,0.0,34.33000000000001,34.33,34.330000000000005,34.330000000000005,34.33,7.105427357601002e-15,127.38,65.63,95.3,94.095,65.63,23.442394288979955
1 -> 2,1.2948260000000005,1.2948259999999996,1.294826,1.294826,1.2948259999999996,4.440892098500626e-16,87.2,87.2,87.2,87.2,87.2,0.0,34.33000000000001,34.33,34.330000000000005,34.330000000000005,34.33,7.105427357601002e-15,127.38,65.63,95.3,94.095,65.63,23.442394288979955
1 -> 2,1.2948260000000005,1.2948259999999996,1.294826,1.294826,1.2948259999999996,4.440892098500626e-16,87.2,87.2,87.2,87.2,87.2,0.0,34.33000000000001,34.33,34.330000000000005,34.330000000000005,34.33,7.105427357601002e-15,80.18,61.22,71.26,71.82,61.22,7.496665925596527
1 -> 2,1.2948260000000005,1.2948259999999996,1.294826,1.294826,1.2948259999999996,4.440892098500626e-16,87.2,87.2,87.2,87.2,87.2,0.0,34.33000000000001,34.33,34.330000000000005,34.330000000000005,34.33,7.105427357601002e-15,80.18,61.22,71.26,71.82,61.22,7.496665925596527
1 -> 2,1.2948260000000005,1.2948259999999996,1.294826,1.294826,1.2948259999999996,4.440892098500626e-16,87.2,87.2,87.2,87.2,87.2,0.0,34.33000000000001,34.33,34.330000000000005,34.330000000000005,34.33,7.105427357601002e-15,71.25,-20.93,28.2175,31.275000000000002,-20.93,34.802125922851324
1 -> 2,1.2948260000000005,1.2948259999999996,1.294826,1.294826,1.2948259999999996,4.440892098500626e-16,87.2,87.2,87.2,87.2,87.2,0.0,34.33000000000001,34.33,34.330000000000005,34.330000000000005,34.33,7.105427357601002e-15,71.25,-20.93,28.2175,31.275000000000002,-20.93,34.802125922851324
1 -> 2,1.2948260000000005,1.2948259999999996,1.294826,1.294826,1.2948259999999996,4.440892098500626e-16,87.2,87.2,87.2,87.2,87.2,0.0,34.33000000000001,34.33,34.330000000000005,34.330000000000005,34.33,7.105427357601002e-15,-49.36,-64.14,-57.169999999999995,-57.59,-64.14,6.739621651101788
1 -> 2,1.2948260000000005,1.2948259999999996,1.294826,1.294826,1.2948259999999996,4.440892098500626e-16,87.2,87.2,87.2,87.2,87.2,0.0,34.33000000000001,34.33,34.330000000000005,34.330000000000005,34.33,7.105427357601002e-15,-49.36,-64.14,-57.169999999999995,-57.59,-64.14,6.739621651101788
1 -> 2,1.2986670000000005,1.2986669999999996,1.298667,1.2986670000000002,1.2986670000000005,3.8459253727671276e-16,87.2,87.2,87.2,87.2,87.2,0.0,34.33000000000001,34.33,34.330000000000005,34.330000000000005,34.33,7.105427357601002e-15,-18.41,-35.72,-24.5775,-22.09,-35.72,6.660493131142768
1 -> 2,1.2986670000000005,1.2986669999999996,1.298667,1.2986670000000002,1.2986670000000005,3.8459253727671276e-16,87.2,87.2,87.2,87.2,87.2,0.0,34.33000000000001,34.33,34.330000000000005,34.330000000000005,34.33,7.105427357601002e-15,-18.41,-35.72,-24.5775,-22.09,-35.72,6.660493131142768
1 -> 2,1.2986670000000005,1.2986669999999996,1.298667,1.2986670000000002,1.2986670000000005,3.8459253727671276e-16,87.2,87.2,87.2,87.2,87.2,0.0,34.33000000000001,34.33,34.330000000000005,34.330000000000005,34.33,7.105427357601002e-15,-27.54,-41.42,-35.5475,-36.614999999999995,-41.42,5.275601269049814
1 -> 2,1.2986670000000005,1.2986669999999996,1.298667,1.2986670000000002,1.2986670000000005,3.8459253727671276e-16,87.2,87.2,87.2,87.2,87.2,0.0,34.33000000000001,34.33,34.330000000000005,34.330000000000005,34.33,7.105427357601002e-15,-27.54,-41.42,-35.5475,-36.614999999999995,-41.42,5.275601269049814
1 -> 2,1.2986670000000005,1.2986669999999996,1.298667,1.2986670000000002,1.2986670000000005,3.8459253727671276e-16,87.2,87.2,87.2,87.2,87.2,0.0,34.33000000000001,34.33,34.330000000000005,34.330000000000005,34.33,7.105427357601002e-15,-43.71,-52.71,-48.6775,-49.144999999999996,-52.71,3.5062613636179485
1 -> 2,1.2986670000000005,1.2986669999999996,1.298667,1.2986670000000002,1.2986670000000005,3.8459253727671276e-16,87.2,87.2,87.2,87.2,87.2,0.0,34.33000000000001,34.33,34.330000000000005,34.330000000000005,34.33,7.105427357601002e-15,-43.71,-52.71,-48.6775,-49.144999999999996,-52.71,3.5062613636179485
1 -> 2,1.2986670000000005,1.2986669999999996,1.298667,1.2986670000000002,1.2986670000000005,3.8459253727671276e-16,87.2,87.2,87.2,87.2,87.2,0.0,34.33000000000001,34.33,34.330000000000005,34.330000000000005,34.33,7.105427357601002e-15,-1.89,-48.58,-27.2525,-29.27,-48.58,17.663890249602435
1 -> 2,1.2986670000000005,1.2986669999999996,1.298667,1.2986670000000002,1.2986670000000005,3.8459253727671276e-16,87.2,87.2,87.2,87.2,87.2,0.0,34.33000000000001,34.33,34.330000000000005,34.330000000000005,34.33,7.105427357601002e-15,-1.89,-48.58,-27.2525,-29.27,-48.58,17.663890249602435
1 -> 2,1.2922650000000004,1.2922649999999993,1.292265,1.2922650000000002,1.2922650000000004,4.577566798522237e-16,87.2,87.2,87.2,87.2,87.2,0.0,34.33000000000001,34.33,34.330000000000005,34.330000000000005,34.33,7.105427357601002e-15,21.99,7.82,15.9,16.895,7.82,5.5105761949182765
1 -> 2,1.2922650000000004,1.2922649999999993,1.292265,1.2922650000000002,1.2922650000000004,4.577566798522237e-16,87.2,87.2,87.2,87.2,87.2,0.0,34.33000000000001,34.33,34.330000000000005,34.330000000000005,34.33,7.105427357601002e-15,21.99,7.82,15.9,16.895,7.82,5.5105761949182765
1 -> 2,1.2922650000000004,1.2922649999999993,1.292265,1.2922650000000002,1.2922650000000004,4.577566798522237e-16,87.2,87.2,87.2,87.2,87.2,0.0,34.33000000000001,34.33,34.330000000000005,34.330000000000005,34.33,7.105427357601002e-15,-11.49,-79.78,-46.17,-46.705,-79.78,25.593883058262183
1 -> 2,1.2922650000000004,1.2922649999999993,1.292265,1.2922650000000002,1.2922650000000004,4.577566798522237e-16,87.2,87.2,87.2,87.2,87.2,0.0,34.33000000000001,34.33,34.330000000000005,34.330000000000005,34.33,7.105427357601002e-15,-11.49,-79.78,-46.17,-46.705,-79.78,25.593883058262183
1 -> 2,1.2922650000000004,1.2922649999999993,1.292265,1.2922650000000002,1.2922650000000004,4.577566798522237e-16,87.2,87.2,87.2,87.2,87.2,0.0,34.33000000000001,34.33,34.330000000000005,34.330000000000005,34.33,7.105427357601002e-15,-70.57,-99.65,-89.24,-93.37,-99.65,11.11281917426897
1 -> 2,1.2922650000000004,1.2922649999999993,1.292265,1.2922650000000002,1.2922650000000004,4.577566798522237e-16,87.2,87.2,87.2,87.2,87.2,0.0,34.33000000000001,34.33,34.330000000000005,34.330000000000005,34.33,7.105427357601002e-15,-70.57,-99.65,-89.24,-93.37,-99.65,11.11281917426897
1 -> 2,1.2922650000000004,1.2922649999999993,1.292265,1.2922650000000002,1.2922650000000004,4.577566798522237e-16,87.2,87.2,87.2,87.2,87.2,0.0,34.33000000000001,34.33,34.330000000000005,34.330000000000005,34.33,7.105427357601002e-15,80.59,-36.18,24.79,27.375,-36.18,44.03041505595876
1 -> 2,1.2922650000000004,1.2922649999999993,1.292265,1.2922650000000002,1.2922650000000004,4.577566798522237e-16,87.2,87.2,87.2,87.2,87.2,0.0,34.33000000000001,34.33,34.330000000000005,34.330000000000005,34.33,7.105427357601002e-15,80.59,-36.18,24.79,27.375,-36.18,44.03041505595876
1 -> 2,1.2922650000000004,1.2922649999999993,1.292265,1.2922650000000002,1.2922650000000004,4.577566798522237e-16,87.2,87.2,87.2,87.2,87.2,0.0,34.33000000000001,34.33,34.330000000000005,34.330000000000005,34.33,7.105427357601002e-15,94.87,54.87,79.01,83.15,54.87,15.738989802398375
1 -> 2,1.2922650000000004,1.2922649999999993,1.292265,1.2922650000000002,1.2922650000000004,4.577566798522237e-16,87.2,87.2,87.2,87.2,87.2,0.0,34.33000000000001,34.33,34.330000000000005,34.330000000000005,34.33,7.105427357601002e-15,94.87,54.87,79.01,83.15,54.87,15.738989802398375
1 -> 2,1.2922650000000004,1.2922649999999993,1.292265,1.2922650000000002,1.2922650000000004,4.577566798522237e-16,87.2,87.2,87.2,87.2,87.2,0.0,34.33000000000001,34.33,34.330000000000005,34.330000000000005,34.33,7.105427357601002e-15,36.46,20.0,25.62,23.009999999999998,20.0,6.46098676674082
1 -> 2,1.2922650000000004,1.2922649999999993,1.292265,1.2922650000000002,1.2922650000000004,4.577566798522237e-16,87.2,87.2,87.2,87.2,87.2,0.0,34.33000000000001,34.33,34.330000000000005,34.330000000000005,34.33,7.105427357601002e-15,36.46,20.0,25.62,23.009999999999998,20.0,6.46098676674082
1 -> 2,1.2922650000000004,1.2922649999999993,1.292265,1.2922650000000002,1.2922650000000004,4.577566798522237e-16,87.2,87.2,87.2,87.2,87.2,0.0,34.33000000000001,34.33,34.330000000000005,34.330000000000005,34.33,7.105427357601002e-15,50.75,26.56,38.1225,37.59,26.56,9.041640821775658
1 -> 2,1.2922650000000004,1.2922649999999993,1.292265,1.2922650000000002,1.2922650000000004,4.577566798522237e-16,87.2,87.2,87.2,87.2,87.2,0.0,34.33000000000001,34.33,34.330000000000005,34.330000000000005,34.33,7.105427357601002e-15,50.75,26.56,38.1225,37.59,26.56,9.041640821775658
1 -> 2,1.2922650000000004,1.2922649999999993,1.292265,1.2922650000000002,1.2922650000000004,4.577566798522237e-16,87.2,87.2,87.2,87.2,87.2,0.0,34.33000000000001,34.33,34.330000000000005,34.330000000000005,34.33,7.105427357601002e-15,72.92,59.92,68.41499999999999,70.41,59.92,5.294641158756653
1 -> 2,1.2922650000000004,1.2922649999999993,1.292265,1.2922650000000002,1.2922650000000004,4.577566798522237e-16,87.2,87.2,87.2,87.2,87.2,0.0,34.33000000000001,34.33,34.330000000000005,34.330000000000005,34.33,7.105427357601002e-15,72.92,59.92,68.41499999999999,70.41,59.92,5.294641158756653
1 -> 2,1.2922650000000004,1.2922649999999993,1.292265,1.2922650000000002,1.2922650000000004,4.577566798522237e-16,88.91,88.91,88.91,88.91,88.91,0.0,34.29000000000001,34.28999999999997,34.29,34.290000000000006,34.29000000000001,1.7763568394002505e-14,67.0,37.03,51.4375,50.86,37.03,11.353883421543486
1 -> 2,1.2922650000000004,1.2922649999999993,1.292265,1.2922650000000002,1.2922650000000004,4.577566798522237e-16,88.91,88.91,88.91,88.91,88.91,0.0,34.29000000000001,34.28999999999997,34.29,34.290000000000006,34.29000000000001,1.7763568394002505e-14,67.0,37.03,51.4375,50.86,37.03,11.353883421543486
1 -> 2,1.2922650000000004,1.2922649999999993,1.292265,1.2922650000000002,1.2922650000000004,4.577566798522237e-16,88.91,88.91,88.91,88.91,88.91,0.0,34.29000000000001,34.28999999999997,34.29,34.290000000000006,34.29000000000001,1.7763568394002505e-14,74.82,36.14,53.230000000000004,50.980000000000004,36.14,14.769715637073043
1 -> 2,1.2922650000000004,1.2922649999999993,1.292265,1.2922650000000002,1.2922650000000004,4.577566798522237e-16,88.91,88.91,88.91,88.91,88.91,0.0,34.29000000000001,34.28999999999997,34.29,34.290000000000006,34.29000000000001,1.7763568394002505e-14,74.82,36.14,53.230000000000004,50.980000000000004,36.14,14.769715637073043
1 -> 2,1.2922650000000004,1.2922649999999993,1.292265,1.2922650000000002,1.2922650000000004,4.577566798522237e-16,88.91,88.91,88.91,88.91,88.91,0.0,34.29000000000001,34.28999999999997,34.29,34.290000000000006,34.29000000000001,1.7763568394002505e-14,91.24,61.7,80.75750000000001,85.045,61.7,11.435664333566281
1 -> 2,1.2922650000000004,1.2922649999999993,1.292265,1.2922650000000002,1.2922650000000004,4.577566798522237e-16,88.91,88.91,88.91,88.91,88.91,0.0,34.29000000000001,34.28999999999997,34.29,34.290000000000006,34.29000000000001,1.7763568394002505e-14,91.24,61.7,80.75750000000001,85.045,61.7,11.435664333566281
1 -> 2,1.2922650000000004,1.2922649999999993,1.292265,1.2922650000000002,1.2922650000000004,4.577566798522237e-16,88.91,88.91,88.91,88.91,88.91,0.0,34.29000000000001,34.28999999999997,34.29,34.290000000000006,34.29000000000001,1.7763568394002505e-14,32.07,-66.83,-18.2075,-19.035,-66.83,37.0015380592483
1 -> 2,1.2922650000000004,1.2922649999999993,1.292265,1.2922650000000002,1.2922650000000004,4.577566798522237e-16,88.91,88.91,88.91,88.91,88.91,0.0,34.29000000000001,34.28999999999997,34.29,34.290000000000006,34.29000000000001,1.7763568394002505e-14,32.07,-66.83,-18.2075,-19.035,-66.83,37.0015380592483
1 -> 2,1.2845830000000005,1.2845829999999998,1.2845830000000003,1.2845830000000005,1.2845830000000005,2.9373740229761033e-16,88.91,88.91,88.91,88.91,88.91,0.0,34.29000000000001,34.28999999999997,34.29,34.290000000000006,34.29000000000001,1.7763568394002505e-14,-91.62,-126.96,-112.05499999999999,-114.82,-126.96,13.37477756824389
1 -> 2,1.2845830000000005,1.2845829999999998,1.2845830000000003,1.2845830000000005,1.2845830000000005,2.9373740229761033e-16,88.91,88.91,88.91,88.91,88.91,0.0,34.29000000000001,34.28999999999997,34.29,34.290000000000006,34.29000000000001,1.7763568394002505e-14,-91.62,-126.96,-112.05499999999999,-114.82,-126.96,13.37477756824389
1 -> 2,1.2845830000000005,1.2845829999999998,1.2845830000000003,1.2845830000000005,1.2845830000000005,2.9373740229761033e-16,88.91,88.91,88.91,88.91,88.91,0.0,34.29000000000001,34.28999999999997,34.29,34.290000000000006,34.29000000000001,1.7763568394002505e-14,-131.71,-144.61,-138.305,-138.45,-144.61,4.837222860278406
1 -> 2,1.2845830000000005,1.2845829999999998,1.2845830000000003,1.2845830000000005,1.2845830000000005,2.9373740229761033e-16,88.91,88.91,88.91,88.91,88.91,0.0,34.29000000000001,34.28999999999997,34.29,34.290000000000006,34.29000000000001,1.7763568394002505e-14,-131.71,-144.61,-138.305,-138.45,-144.61,4.837222860278406
1 -> 2,1.2845830000000005,1.2845829999999998,1.2845830000000003,1.2845830000000005,1.2845830000000005,2.9373740229761033e-16,88.91,88.91,88.91,88.91,88.91,0.0,34.29000000000001,34.28999999999997,34.29,34.290000000000006,34.29000000000001,1.7763568394002505e-14,-129.82,-146.39,-139.9225,-141.74,-146.39,6.465289533346514
1 -> 2,1.2845830000000005,1.2845829999999998,1.2845830000000003,1.2845830000000005,1.2845830000000005,2.9373740229761033e-16,88.91,88.91,88.91,88.91,88.91,0.0,34.29000000000001,34.28999999999997,34.29,34.290000000000006,34.29000000000001,1.7763568394002505e-14,-129.82,-146.39,-139.9225,-141.74,-146.39,6.465289533346514
1 -> 2,1.2845830000000005,1.2845829999999998,1.2845830000000003,1.2845830000000005,1.2845830000000005,2.9373740229761033e-16,88.91,88.91,88.91,88.91,88.91,0.0,34.29000000000001,34.28999999999997,34.29,34.290000000000006,34.29000000000001,1.7763568394002505e-14,-88.92,-119.85,-104.71000000000001,-105.035,-119.85,11.502784445515786
1 -> 2,1.2845830000000005,1.2845829999999998,1.2845830000000003,1.2845830000000005,1.2845830000000005,2.9373740229761033e-16,88.91,88.91,88.91,88.91,88.91,0.0,34.29000000000001,34.28999999999997,34.29,34.290000000000006,34.29000000000001,1.7763568394002505e-14,-88.92,-119.85,-104.71000000000001,-105.035,-119.85,11.502784445515786
1 -> 2,1.2807420000000005,1.2807419999999998,1.2807420000000003,1.2807420000000003,1.2807420000000005,2.9373740229761033e-16,88.91,88.91,88.91,88.91,88.91,0.0,34.29000000000001,34.28999999999997,34.29,34.290000000000006,34.29000000000001,1.7763568394002505e-14,-59.88,-77.15,-65.9625,-63.410000000000004,-77.15,7.010229578979566
1 -> 2,1.2807420000000005,1.2807419999999998,1.2807420000000003,1.2807420000000003,1.2807420000000005,2.9373740229761033e-16,88.91,88.91,88.91,88.91,88.91,0.0,34.29000000000001,34.28999999999997,34.29,34.290000000000006,34.29000000000001,1.7763568394002505e-14,-59.88,-77.15,-65.9625,-63.410000000000004,-77.15,7.010229578979566
1 -> 2,1.2807420000000005,1.2807419999999998,1.2807420000000003,1.2807420000000003,1.2807420000000005,2.9373740229761033e-16,88.91,88.91,88.91,88.91,88.91,0.0,34.29000000000001,34.28999999999997,34.29,34.290000000000006,34.29000000000001,1.7763568394002505e-14,-66.94,-119.86,-92.325,-91.25,-119.86,19.94933269560664
1 -> 2,1.2807420000000005,1.2807419999999998,1.2807420000000003,1.2807420000000003,1.2807420000000005,2.9373740229761033e-16,88.91,88.91,88.91,88.91,88.91,0.0,34.29000000000001,34.28999999999997,34.29,34.290000000000006,34.29000000000001,1.7763568394002505e-14,-66.94,-119.86,-92.325,-91.25,-119.86,19.94933269560664
1 -> 2,1.2807420000000005,1.2807419999999998,1.2807420000000003,1.2807420000000003,1.2807420000000005,2.9373740229761033e-16,88.91,88.91,88.91,88.91,88.91,0.0,34.29000000000001,34.28999999999997,34.29,34.290000000000006,34.29000000000001,1.7763568394002505e-14,-112.75,-137.07,-128.2975,-131.685,-137.07,9.29795508431827
1 -> 2,1.2807420000000005,1.2807419999999998,1.2807420000000003,1.2807420000000003,1.2807420000000005,2.9373740229761033e-16,88.91,88.91,88.91,88.91,88.91,0.0,34.29000000000001,34.28999999999997,34.29,34.290000000000006,34.29000000000001,1.7763568394002505e-14,-112.75,-137.07,-128.2975,-131.685,-137.07,9.29795508431827
1 -> 2,1.2807420000000005,1.2807419999999998,1.2807420000000003,1.2807420000000003,1.2807420000000005,2.9373740229761033e-16,88.91,88.91,88.91,88.91,88.91,0.0,34.29000000000001,34.28999999999997,34.29,34.290000000000006,34.29000000000001,1.7763568394002505e-14,50.57,-86.08,-19.497500000000002,-21.240000000000002,-86.08,51.36433508525152
1 -> 2,1.2807420000000005,1.2807419999999998,1.2807420000000003,1.2807420000000003,1.2807420000000005,2.9373740229761033e-16,88.91,88.91,88.91,88.91,88.91,0.0,34.29000000000001,34.28999999999997,34.29,34.290000000000006,34.29000000000001,1.7763568394002505e-14,50.57,-86.08,-19.497500000000002,-21.240000000000002,-86.08,51.36433508525152
1 -> 2,1.2704980000000003,1.2704979999999992,1.2704980000000001,1.2704980000000003,1.2704980000000003,4.710277376051325e-16,88.91,88.91,88.91,88.91,88.91,0.0,34.29000000000001,34.28999999999997,34.29,34.290000000000006,34.29000000000001,1.7763568394002505e-14,122.1,86.66,109.2775,114.175,86.66,13.970057936529827
1 -> 2,1.2704980000000003,1.2704979999999992,1.2704980000000001,1.2704980000000003,1.2704980000000003,4.710277376051325e-16,88.91,88.91,88.91,88.91,88.91,0.0,34.29000000000001,34.28999999999997,34.29,34.290000000000006,34.29000000000001,1.7763568394002505e-14,122.1,86.66,109.2775,114.175,86.66,13.970057936529827
1 -> 2,1.2704980000000003,1.2704979999999992,1.2704980000000001,1.2704980000000003,1.2704980000000003,4.710277376051325e-16,88.91,88.91,88.91,88.91,88.91,0.0,34.29000000000001,34.28999999999997,34.29,34.290000000000006,34.29000000000001,1.7763568394002505e-14,119.77,104.67,112.3025,112.38499999999999,104.67,5.650413148611346
1 -> 2,1.2704980000000003,1.2704979999999992,1.2704980000000001,1.2704980000000003,1.2704980000000003,4.710277376051325e-16,88.91,88.91,88.91,88.91,88.91,0.0,34.29000000000001,34.28999999999997,34.29,34.290000000000006,34.29000000000001,1.7763568394002505e-14,119.77,104.67,112.3025,112.38499999999999,104.67,5.650413148611346
1 -> 2,1.2704980000000003,1.2704979999999992,1.2704980000000001,1.2704980000000003,1.2704980000000003,4.710277376051325e-16,88.91,88.91,88.91,88.91,88.91,0.0,34.29000000000001,34.28999999999997,34.29,34.290000000000006,34.29000000000001,1.7763568394002505e-14,112.97,101.71,105.88999999999999,104.44,101.71,4.47114638543629
1 -> 2,1.2704980000000003,1.2704979999999992,1.2704980000000001,1.2704980000000003,1.2704980000000003,4.710277376051325e-16,88.91,88.91,88.91,88.91,88.91,0.0,34.29000000000001,34.28999999999997,34.29,34.290000000000006,34.29000000000001,1.7763568394002505e-14,112.97,101.71,105.88999999999999,104.44,101.71,4.47114638543629
1 -> 2,1.2704980000000003,1.2704979999999992,1.2704980000000001,1.2704980000000003,1.2704980000000003,4.710277376051325e-16,88.91,88.91,88.91,88.91,88.91,0.0,34.29000000000001,34.28999999999997,34.29,34.290000000000006,34.29000000000001,1.7763568394002505e-14,126.44,118.93,123.18,123.67500000000001,118.93,2.791066104555745
1 -> 2,1.2704980000000003,1.2704979999999992,1.2704980000000001,1.2704980000000003,1.2704980000000003,4.710277376051325e-16,88.91,88.91,88.91,88.91,88.91,0.0,34.29000000000001,34.28999999999997,34.29,34.290000000000006,34.29000000000001,1.7763568394002505e-14,126.44,118.93,123.18,123.67500000000001,118.93,2.791066104555745
1 -> 2,1.2615360000000004,1.2615359999999993,1.261536,1.2615360000000002,1.2615360000000004,4.577566798522237e-16,90.17,90.17,90.17,90.17,90.17,0.0,34.29000000000001,34.28999999999997,34.29,34.290000000000006,34.29000000000001,1.7763568394002505e-14,171.3,129.3,147.07,143.84,129.3,16.015434742772364
1 -> 2,1.2615360000000004,1.2615359999999993,1.261536,1.2615360000000002,1.2615360000000004,4.577566798522237e-16,90.17,90.17,90.17,90.17,90.17,0.0,34.29000000000001,34.28999999999997,34.29,34.290000000000006,34.29000000000001,1.7763568394002505e-14,171.3,129.3,147.07,143.84,129.3,16.015434742772364
1 -> 2,1.2615360000000004,1.2615359999999993,1.261536,1.2615360000000002,1.2615360000000004,4.577566798522237e-16,90.17,90.17,90.17,90.17,90.17,0.0,34.29000000000001,34.28999999999997,34.29,34.290000000000006,34.29000000000001,1.7763568394002505e-14,214.11,193.35,204.4475,205.16500000000002,193.35,8.146626218871226
1 -> 2,1.2615360000000004,1.2615359999999993,1.261536,1.2615360000000002,1.2615360000000004,4.577566798522237e-16,90.17,90.17,90.17,90.17,90.17,0.0,34.29000000000001,34.28999999999997,34.29,34.290000000000006,34.29000000000001,1.7763568394002505e-14,214.11,193.35,204.4475,205.16500000000002,193.35,8.146626218871226
1 -> 2,1.2615360000000004,1.2615359999999993,1.261536,1.2615360000000002,1.2615360000000004,4.577566798522237e-16,90.17,90.17,90.17,90.17,90.17,0.0,34.29000000000001,34.28999999999997,34.29,34.290000000000006,34.29000000000001,1.7763568394002505e-14,166.83,-17.51,76.995,79.33,-17.51,69.27667663073916
1 -> 2,1.2615360000000004,1.2615359999999993,1.261536,1.2615360000000002,1.2615360000000004,4.577566798522237e-16,90.17,90.17,90.17,90.17,90.17,0.0,34.29000000000001,34.28999999999997,34.29,34.290000000000006,34.29000000000001,1.7763568394002505e-14,166.83,-17.51,76.995,79.33,-17.51,69.27667663073916
1 -> 2,1.2615360000000004,1.2615359999999993,1.261536,1.2615360000000002,1.2615360000000004,4.577566798522237e-16,90.17,90.17,90.17,90.17,90.17,0.0,34.29000000000001,34.28999999999997,34.29,34.290000000000006,34.29000000000001,1.7763568394002505e-14,-66.5,-99.86,-87.925,-92.66999999999999,-99.86,12.734481732681544
1 -> 2,1.2615360000000004,1.2615359999999993,1.261536,1.2615360000000002,1.2615360000000004,4.577566798522237e-16,90.17,90.17,90.17,90.17,90.17,0.0,34.29000000000001,34.28999999999997,34.29,34.290000000000006,34.29000000000001,1.7763568394002505e-14,-66.5,-99.86,-87.925,-92.66999999999999,-99.86,12.734481732681544
1 -> 2,1.2564140000000004,1.2564139999999997,1.256414,1.2564140000000001,1.2564140000000004,3.3306690738754696e-16,90.17,90.17,90.17,90.17,90.17,0.0,34.29000000000001,34.28999999999997,34.29,34.290000000000006,34.29000000000001,1.7763568394002505e-14,-60.39,-77.84,-66.42999999999999,-63.745000000000005,-77.84,6.964951543262883
1 -> 2,1.2564140000000004,1.2564139999999997,1.256414,1.2564140000000001,1.2564140000000004,3.3306690738754696e-16,90.17,90.17,90.17,90.17,90.17,0.0,34.29000000000001,34.28999999999997,34.29,34.290000000000006,34.29000000000001,1.7763568394002505e-14,-60.39,-77.84,-66.42999999999999,-63.745000000000005,-77.84,6.964951543262883
1 -> 2,1.2564140000000004,1.2564139999999997,1.256414,1.2564140000000001,1.2564140000000004,3.3306690738754696e-16,90.17,90.17,90.17,90.17,90.17,0.0,34.29000000000001,34.28999999999997,34.29,34.290000000000006,34.29000000000001,1.7763568394002505e-14,-61.3,-90.84,-72.48249999999999,-68.895,-90.84,11.45671064267576
1 -> 2,1.2564140000000004,1.2564139999999997,1.256414,1.2564140000000001,1.2564140000000004,3.3306690738754696e-16,90.17,90.17,90.17,90.17,90.17,0.0,34.29000000000001,34.28999999999997,34.29,34.290000000000006,34.29000000000001,1.7763568394002505e-14,-61.3,-90.84,-72.48249999999999,-68.895,-90.84,11.45671064267576
1 -> 2,1.2564140000000004,1.2564139999999997,1.256414,1.2564140000000001,1.2564140000000004,3.3306690738754696e-16,90.17,90.17,90.17,90.17,90.17,0.0,34.29000000000001,34.28999999999997,34.29,34.290000000000006,34.29000000000001,1.7763568394002505e-14,-118.85,-184.79,-155.8375,-159.85500000000002,-184.79,24.842776993524698
1 -> 2,1.2564140000000004,1.2564139999999997,1.256414,1.2564140000000001,1.2564140000000004,3.3306690738754696e-16,90.17,90.17,90.17,90.17,90.17,0.0,34.29000000000001,34.28999999999997,34.29,34.290000000000006,34.29000000000001,1.7763568394002505e-14,-118.85,-184.79,-155.8375,-159.85500000000002,-184.79,24.842776993524698
1 -> 2,1.2564140000000004,1.2564139999999997,1.256414,1.2564140000000001,1.2564140000000004,3.3306690738754696e-16,90.17,90.17,90.17,90.17,90.17,0.0,34.29000000000001,34.28999999999997,34.29,34.290000000000006,34.29000000000001,1.7763568394002505e-14,-142.1,-191.22,-171.44000000000003,-176.22000000000003,-191.22,19.07078918136321
1 -> 2,1.2564140000000004,1.2564139999999997,1.256414,1.2564140000000001,1.2564140000000004,3.3306690738754696e-16,90.17,90.17,90.17,90.17,90.17,0.0,34.29000000000001,34.28999999999997,34.29,34.290000000000006,34.29000000000001,1.7763568394002505e-14,-142.1,-191.22,-171.44000000000003,-176.22000000000003,-191.22,19.07078918136321
1 -> 2,1.2589750000000004,1.2589749999999997,1.258975,1.2589750000000002,1.2589750000000004,3.3306690738754696e-16,90.17,90.17,90.17,90.17,90.17,0.0,34.29000000000001,34.28999999999997,34.29,34.290000000000006,34.29000000000001,1.7763568394002505e-14,-50.24,-114.47,-80.0925,-77.83,-114.47,24.078524015188307
1 -> 2,1.2589750000000004,1.2589749999999997,1.258975,1.2589750000000002,1.2589750000000004,3.3306690738754696e-16,90.17,90.17,90.17,90.17,90.17,0.0,34.29000000000001,34.28999999999997,34.29,34.290000000000006,34.29000000000001,1.7763568394002505e-14,-50.24,-114.47,-80.0925,-77.83,-114.47,24.078524015188307
1 -> 2,1.2589750000000004,1.2589749999999997,1.258975,1.2589750000000002,1.2589750000000004,3.3306690738754696e-16,90.17,90.17,90.17,90.17,90.17,0.0,34.29000000000001,34.28999999999997,34.29,34.290000000000006,34.29000000000001,1.7763568394002505e-14,-5.32,-38.13,-21.85,-21.975,-38.13,12.24545425862185
1 -> 2,1.2589750000000004,1.2589749999999997,1.258975,1.2589750000000002,1.2589750000000004,3.3306690738754696e-16,90.17,90.17,90.17,90.17,90.17,0.0,34.29000000000001,34.28999999999997,34.29,34.290000000000006,34.29000000000001,1.7763568394002505e-14,-5.32,-38.13,-21.85,-21.975,-38.13,12.24545425862185
1 -> 2,1.2589750000000004,1.2589749999999997,1.258975,1.2589750000000002,1.2589750000000004,3.3306690738754696e-16,90.17,90.17,90.17,90.17,90.17,0.0,34.29000000000001,34.28999999999997,34.29,34.290000000000006,34.29000000000001,1.7763568394002505e-14,26.03,4.74,15.895,16.405,4.74,7.912864525568475
1 -> 2,1.2589750000000004,1.2589749999999997,1.258975,1.2589750000000002,1.2589750000000004,3.3306690738754696e-16,90.17,90.17,90.17,90.17,90.17,0.0,34.29000000000001,34.28999999999997,34.29,34.290000000000006,34.29000000000001,1.7763568394002505e-14,26.03,4.74,15.895,16.405,4.74,7.912864525568475
1 -> 2,1.2589750000000004,1.2589749999999997,1.258975,1.2589750000000002,1.2589750000000004,3.3306690738754696e-16,90.17,90.17,90.17,90.17,90.17,0.0,34.29000000000001,34.28999999999997,34.29,34.290000000000006,34.29000000000001,1.7763568394002505e-14,48.28,32.21,40.4475,40.65,32.21,6.010858403755656
1 -> 2,1.2589750000000004,1.2589749999999997,1.258975,1.2589750000000002,1.2589750000000004,3.3306690738754696e-16,90.17,90.17,90.17,90.17,90.17,0.0,34.29000000000001,34.28999999999997,34.29,34.290000000000006,34.29000000000001,1.7763568394002505e-14,48.28,32.21,40.4475,40.65,32.21,6.010858403755656
1 -> 2,1.2564140000000004,1.2564139999999997,1.256414,1.2564140000000001,1.2564140000000004,3.3306690738754696e-16,90.17,90.17,90.17,90.17,90.17,0.0,34.29000000000001,34.28999999999997,34.29,34.290000000000006,34.29000000000001,1.7763568394002505e-14,51.05,44.9,48.905,49.834999999999994,51.05,2.516113073770731
1 -> 2,1.2564140000000004,1.2564139999999997,1.256414,1.2564140000000001,1.2564140000000004,3.3306690738754696e-16,90.17,90.17,90.17,90.17,90.17,0.0,34.29000000000001,34.28999999999997,34.29,34.290000000000006,34.29000000000001,1.7763568394002505e-14,51.05,44.9,48.905,49.834999999999994,51.05,2.516113073770731
1 -> 2,1.2564140000000004,1.2564139999999997,1.256414,1.2564140000000001,1.2564140000000004,3.3306690738754696e-16,90.17,90.17,90.17,90.17,90.17,0.0,34.29000000000001,34.28999999999997,34.29,34.290000000000006,34.29000000000001,1.7763568394002505e-14,41.27,36.17,38.1125,37.505,36.17,2.016635502514027
1 -> 2,1.2564140000000004,1.2564139999999997,1.256414,1.2564140000000001,1.2564140000000004,3.3306690738754696e-16,90.17,90.17,90.17,90.17,90.17,0.0,34.29000000000001,34.28999999999997,34.29,34.290000000000006,34.29000000000001,1.7763568394002505e-14,41.27,36.17,38.1125,37.505,36.17,2.016635502514027
1 -> 2,1.2564140000000004,1.2564139999999997,1.256414,1.2564140000000001,1.2564140000000004,3.3306690738754696e-16,90.17,90.17,90.17,90.17,90.17,0.0,34.29000000000001,34.28999999999997,34.29,34.290000000000006,34.29000000000001,1.7763568394002505e-14,39.45,37.21,38.5925,38.855000000000004,37.21,0.8480676564991738
1 -> 2,1.2564140000000004,1.2564139999999997,1.256414,1.2564140000000001,1.2564140000000004,3.3306690738754696e-16,90.17,90.17,90.17,90.17,90.17,0.0,34.29000000000001,34.28999999999997,34.29,34.290000000000006,34.29000000000001,1.7763568394002505e-14,39.45,37.21,38.5925,38.855000000000004,37.21,0.8480676564991738
1 -> 2,1.2564140000000004,1.2564139999999997,1.256414,1.2564140000000001,1.2564140000000004,3.3306690738754696e-16,90.17,90.17,90.17,90.17,90.17,0.0,34.29000000000001,34.28999999999997,34.29,34.290000000000006,34.29000000000001,1.7763568394002505e-14,37.68,35.47,36.3425,36.11,35.47,0.8159771749258677
1 -> 2,1.2564140000000004,1.2564139999999997,1.256414,1.2564140000000001,1.2564140000000004,3.3306690738754696e-16,90.17,90.17,90.17,90.17,90.17,0.0,34.29000000000001,34.28999999999997,34.29,34.290000000000006,34.29000000000001,1.7763568394002505e-14,37.68,35.47,36.3425,36.11,35.47,0.8159771749258677
1 -> 2,1.2436100000000005,1.2436099999999997,1.24361,1.2436100000000003,1.2436100000000005,4.002966042486721e-16,92.08,92.08,92.08,92.08,92.08,0.0,34.29000000000001,34.28999999999997,34.29,34.290000000000006,34.29000000000001,1.7763568394002505e-14,39.99,37.26,38.7275,38.83,37.26,1.1844487114265452
1 -> 2,1.2436100000000005,1.2436099999999997,1.24361,1.2436100000000003,1.2436100000000005,4.002966042486721e-16,92.08,92.08,92.08,92.08,92.08,0.0,34.29000000000001,34.28999999999997,34.29,34.290000000000006,34.29000000000001,1.7763568394002505e-14,39.99,37.26,38.7275,38.83,37.26,1.1844487114265452
1 -> 2,1.2436100000000005,1.2436099999999997,1.24361,1.2436100000000003,1.2436100000000005,4.002966042486721e-16,92.08,92.08,92.08,92.08,92.08,0.0,34.29000000000001,34.28999999999997,34.29,34.290000000000006,34.29000000000001,1.7763568394002505e-14,31.78,18.44,23.91,22.71,18.44,5.189961464211464
1 -> 2,1.2436100000000005,1.2436099999999997,1.24361,1.2436100000000003,1.2436100000000005,4.002966042486721e-16,92.08,92.08,92.08,92.08,92.08,0.0,34.29000000000001,34.28999999999997,34.29,34.290000000000006,34.29000000000001,1.7763568394002505e-14,31.78,18.44,23.91,22.71,18.44,5.189961464211464
1 -> 2,1.2436100000000005,1.2436099999999997,1.24361,1.2436100000000003,1.2436100000000005,4.002966042486721e-16,92.08,92.08,92.08,92.08,92.08,0.0,34.29000000000001,34.28999999999997,34.29,34.290000000000006,34.29000000000001,1.7763568394002505e-14,34.61,20.59,27.9425,28.285,20.59,5.334310522457424
1 -> 2,1.2436100000000005,1.2436099999999997,1.24361,1.2436100000000003,1.2436100000000005,4.002966042486721e-16,92.08,92.08,92.08,92.08,92.08,0.0,34.29000000000001,34.28999999999997,34.29,34.290000000000006,34.29000000000001,1.7763568394002505e-14,34.61,20.59,27.9425,28.285,20.59,5.334310522457424
1 -> 2,1.2436100000000005,1.2436099999999997,1.24361,1.2436100000000003,1.2436100000000005,4.002966042486721e-16,92.08,92.08,92.08,92.08,92.08,0.0,34.29000000000001,34.28999999999997,34.29,34.290000000000006,34.29000000000001,1.7763568394002505e-14,34.91,25.38,30.1825,30.22,25.38,3.651584416386946
