PHASE,EDA_MAX,EDA_MIN,EDA_MEAN,EDA_MEDIAN,EDA_MODE,EDA_SD,EDA_DIFF,HR_MAX,HR_MIN,HR_MEAN,HR_MEDIAN,HR_MODE,HR_SD,HR_DIFF,SKT_MAX,SKT_MIN,SKT_MEAN,SKT_MEDIAN,SKT_MODE,SKT_SD,SKT_DIFF,BVP_MAX,BVP_MIN,BVP_MEAN,BVP_MEDIAN,BVP_MODE,BVP_SD,BVP_DIFF
1 -> 2,10.327134000000003,10.327133999999996,10.327134,10.327134000000001,10.327134000000003,3.2023728339893768e-15,-5.921189464667501e-16,58.0,58.0,58.0,58.0,58.0,0.0,0.0,34.030000000000015,34.02999999999999,34.03,34.03000000000001,34.030000000000015,1.2306961192854808e-14,4.736951571734001e-15,-0.59,-3.76,-2.0525,-1.9300000000000002,-3.76,1.1903439628947592,-1.0566666666666666
1 -> 2,10.327134000000003,10.327133999999996,10.327134,10.327134000000001,10.327134000000003,3.2023728339893768e-15,-5.921189464667501e-16,58.0,58.0,58.0,58.0,58.0,0.0,0.0,34.030000000000015,34.02999999999999,34.03,34.03000000000001,34.030000000000015,1.2306961192854808e-14,4.736951571734001e-15,-0.59,-3.76,-2.0525,-1.9300000000000002,-3.76,1.1903439628947592,-1.0566666666666666
1 -> 2,10.327134000000003,10.327133999999996,10.327134,10.327134000000001,10.327134000000003,3.2023728339893768e-15,-5.921189464667501e-16,58.0,58.0,58.0,58.0,58.0,0.0,0.0,34.030000000000015,34.02999999999999,34.03,34.03000000000001,34.030000000000015,1.2306961192854808e-14,4.736951571734001e-15,-5.15,-8.56,-6.995000000000001,-7.135,-8.56,1.2869052024139152,-1.1366666666666667
1 -> 2,10.327134000000003,10.327133999999996,10.327134,10.327134000000001,10.327134000000003,3.2023728339893768e-15,-5.921189464667501e-16,58.0,58.0,58.0,58.0,58.0,0.0,0.0,34.030000000000015,34.02999999999999,34.03,34.03000000000001,34.030000000000015,1.2306961192854808e-14,4.736951571734001e-15,-5.15,-8.56,-6.995000000000001,-7.135,-8.56,1.2869052024139152,-1.1366666666666667
1 -> 2,10.327134000000003,10.327133999999996,10.327134,10.327134000000001,10.327134000000003,3.2023728339893768e-15,-5.921189464667501e-16,58.0,58.0,58.0,58.0,58.0,0.0,0.0,34.030000000000015,34.02999999999999,34.03,34.03000000000001,34.030000000000015,1.2306961192854808e-14,4.736951571734001e-15,-5.72,-8.81,-7.545,-7.824999999999999,-8.81,1.1918158414788755,1.0300000000000002
1 -> 2,10.327134000000003,10.327133999999996,10.327134,10.327134000000001,10.327134000000003,3.2023728339893768e-15,-5.921189464667501e-16,58.0,58.0,58.0,58.0,58.0,0.0,0.0,34.030000000000015,34.02999999999999,34.03,34.03000000000001,34.030000000000015,1.2306961192854808e-14,4.736951571734001e-15,-5.72,-8.81,-7.545,-7.824999999999999,-8.81,1.1918158414788755,1.0300000000000002
1 -> 2,10.327134000000003,10.327133999999996,10.327134,10.327134000000001,10.327134000000003,3.2023728339893768e-15,-5.921189464667501e-16,58.0,58.0,58.0,58.0,58.0,0.0,0.0,34.030000000000015,34.02999999999999,34.03,34.03000000000001,34.030000000000015,1.2306961192854808e-14,4.736951571734001e-15,1.02,-3.93,-1.3875000000000002,-1.3199999999999998,-3.93,1.8471109197879807,1.6500000000000001
1 -> 2,10.327134000000003,10.327133999999996,10.327134,10.327134000000001,10.327134000000003,3.2023728339893768e-15,-5.921189464667501e-16,58.0,58.0,58.0,58.0,58.0,0.0,0.0,34.030000000000015,34.02999999999999,34.03,34.03000000000001,34.030000000000015,1.2306961192854808e-14,4.736951571734001e-15,1.02,-3.93,-1.3875000000000002,-1.3199999999999998,-3.93,1.8471109197879807,1.6500000000000001
1 -> 2,10.325853000000004,10.325852999999993,10.325852999999999,10.325853,10.325853000000004,4.699798436761765e-15,1.1842378929335002e-15,58.0,58.0,58.0,58.0,58.0,0.0,0.0,34.030000000000015,34.02999999999999,34.03,34.03000000000001,34.030000000000015,1.2306961192854808e-14,4.736951571734001e-15,4.95,2.37,3.8125,3.965,2.37,0.9768923942789195,0.86
1 -> 2,10.325853000000004,10.325852999999993,10.325852999999999,10.325853,10.325853000000004,4.699798436761765e-15,1.1842378929335002e-15,58.0,58.0,58.0,58.0,58.0,0.0,0.0,34.030000000000015,34.02999999999999,34.03,34.03000000000001,34.030000000000015,1.2306961192854808e-14,4.736951571734001e-15,4.95,2.37,3.8125,3.965,2.37,0.9768923942789195,0.86
1 -> 2,10.325853000000004,10.325852999999993,10.325852999999999,10.325853,10.325853000000004,4.699798436761765e-15,1.1842378929335002e-15,58.0,58.0,58.0,58.0,58.0,0.0,0.0,34.030000000000015,34.02999999999999,34.03,34.03000000000001,34.030000000000015,1.2306961192854808e-14,4.736951571734001e-15,5.16,4.62,4.9475,5.005000000000001,4.62,0.21276454121869087,-0.18000000000000002
1 -> 2,10.325853000000004,10.325852999999993,10.325852999999999,10.325853,10.325853000000004,4.699798436761765e-15,1.1842378929335002e-15,58.0,58.0,58.0,58.0,58.0,0.0,0.0,34.030000000000015,34.02999999999999,34.03,34.03000000000001,34.030000000000015,1.2306961192854808e-14,4.736951571734001e-15,5.16,4.62,4.9475,5.005000000000001,4.62,0.21276454121869087,-0.18000000000000002
1 -> 2,10.325853000000004,10.325852999999993,10.325852999999999,10.325853,10.325853000000004,4.699798436761765e-15,1.1842378929335002e-15,58.0,58.0,58.0,58.0,58.0,0.0,0.0,34.030000000000015,34.02999999999999,34.03,34.03000000000001,34.030000000000015,1.2306961192854808e-14,4.736951571734001e-15,4.25,2.15,3.29,3.38,2.15,0.7900316449358216,-0.7000000000000001
1 -> 2,10.325853000000004,10.325852999999993,10.325852999999999,10.325853,10.325853000000004,4.699798436761765e-15,1.1842378929335002e-15,58.0,58.0,58.0,58.0,58.0,0.0,0.0,34.030000000000015,34.02999999999999,34.03,34.03000000000001,34.030000000000015,1.2306961192854808e-14,4.736951571734001e-15,4.25,2.15,3.29,3.38,2.15,0.7900316449358216,-0.7000000000000001
1 -> 2,10.325853000000004,10.325852999999993,10.325852999999999,10.325853,10.325853000000004,4.699798436761765e-15,1.1842378929335002e-15,58.0,58.0,58.0,58.0,58.0,0.0,0.0,34.030000000000015,34.02999999999999,34.03,34.03000000000001,34.030000000000015,1.2306961192854808e-14,4.736951571734001e-15,1.23,-0.38,0.2975,0.16999999999999998,-0.38,0.6137741848595458,-0.5366666666666667
1 -> 2,10.325853000000004,10.325852999999993,10.325852999999999,10.325853,10.325853000000004,4.699798436761765e-15,1.1842378929335002e-15,58.0,58.0,58.0,58.0,58.0,0.0,0.0,34.030000000000015,34.02999999999999,34.03,34.03000000000001,34.030000000000015,1.2306961192854808e-14,4.736951571734001e-15,1.23,-0.38,0.2975,0.16999999999999998,-0.38,0.6137741848595458,-0.5366666666666667
1 -> 2,10.324574000000004,10.324573999999995,10.324574000000002,10.324574000000002,10.324574000000004,4.165926057296536e-15,-1.1842378929335002e-15,58.0,58.0,58.0,58.0,58.0,0.0,0.0,34.030000000000015,34.02999999999999,34.03,34.03000000000001,34.030000000000015,1.2306961192854808e-14,4.736951571734001e-15,-0.5,-1.27,-0.8075,-0.73,-1.27,0.29549746191803405,-0.25666666666666665
1 -> 2,10.324574000000004,10.324573999999995,10.324574000000002,10.324574000000002,10.324574000000004,4.165926057296536e-15,-1.1842378929335002e-15,58.0,58.0,58.0,58.0,58.0,0.0,0.0,34.030000000000015,34.02999999999999,34.03,34.03000000000001,34.030000000000015,1.2306961192854808e-14,4.736951571734001e-15,-0.5,-1.27,-0.8075,-0.73,-1.27,0.29549746191803405,-0.25666666666666665
1 -> 2,10.324574000000004,10.324573999999995,10.324574000000002,10.324574000000002,10.324574000000004,4.165926057296536e-15,-1.1842378929335002e-15,58.0,58.0,58.0,58.0,58.0,0.0,0.0,34.030000000000015,34.02999999999999,34.03,34.03000000000001,34.030000000000015,1.2306961192854808e-14,4.736951571734001e-15,-1.88,-4.69,-3.2024999999999997,-3.12,-4.69,1.0508419243635079,-0.9366666666666669
1 -> 2,10.324574000000004,10.324573999999995,10.324574000000002,10.324574000000002,10.324574000000004,4.165926057296536e-15,-1.1842378929335002e-15,58.0,58.0,58.0,58.0,58.0,0.0,0.0,34.030000000000015,34.02999999999999,34.03,34.03000000000001,34.030000000000015,1.2306961192854808e-14,4.736951571734001e-15,-1.88,-4.69,-3.2024999999999997,-3.12,-4.69,1.0508419243635079,-0.9366666666666669
1 -> 2,10.324574000000004,10.324573999999995,10.324574000000002,10.324574000000002,10.324574000000004,4.165926057296536e-15,-1.1842378929335002e-15,58.0,58.0,58.0,58.0,58.0,0.0,0.0,34.030000000000015,34.02999999999999,34.03,34.03000000000001,34.030000000000015,1.2306961192854808e-14,4.736951571734001e-15,-5.95,-9.06,-7.655000000000001,-7.805,-9.06,1.1794596220303601,-1.0366666666666668
1 -> 2,10.324574000000004,10.324573999999995,10.324574000000002,10.324574000000002,10.324574000000004,4.165926057296536e-15,-1.1842378929335002e-15,58.0,58.0,58.0,58.0,58.0,0.0,0.0,34.030000000000015,34.02999999999999,34.03,34.03000000000001,34.030000000000015,1.2306961192854808e-14,4.736951571734001e-15,-5.95,-9.06,-7.655000000000001,-7.805,-9.06,1.1794596220303601,-1.0366666666666668
1 -> 2,10.324574000000004,10.324573999999995,10.324574000000002,10.324574000000002,10.324574000000004,4.165926057296536e-15,-1.1842378929335002e-15,58.0,58.0,58.0,58.0,58.0,0.0,0.0,34.030000000000015,34.02999999999999,34.03,34.03000000000001,34.030000000000015,1.2306961192854808e-14,4.736951571734001e-15,-4.66,-9.07,-7.1825,-7.5,-9.07,1.6817457447545392,1.47
1 -> 2,10.324574000000004,10.324573999999995,10.324574000000002,10.324574000000002,10.324574000000004,4.165926057296536e-15,-1.1842378929335002e-15,58.0,58.0,58.0,58.0,58.0,0.0,0.0,34.030000000000015,34.02999999999999,34.03,34.03000000000001,34.030000000000015,1.2306961192854808e-14,4.736951571734001e-15,-4.66,-9.07,-7.1825,-7.5,-9.07,1.6817457447545392,1.47
1 -> 2,10.332253000000003,10.332252999999994,10.332252999999998,10.332253,10.332253000000003,4.259554063523935e-15,5.921189464667501e-16,58.0,58.0,58.0,58.0,58.0,0.0,0.0,34.030000000000015,34.02999999999999,34.03,34.03000000000001,34.030000000000015,1.2306961192854808e-14,4.736951571734001e-15,2.74,-2.4,0.38750000000000007,0.605,-2.4,1.9319857012928436,1.7133333333333336
1 -> 2,10.332253000000003,10.332252999999994,10.332252999999998,10.332253,10.332253000000003,4.259554063523935e-15,5.921189464667501e-16,58.0,58.0,58.0,58.0,58.0,0.0,0.0,34.030000000000015,34.02999999999999,34.03,34.03000000000001,34.030000000000015,1.2306961192854808e-14,4.736951571734001e-15,2.74,-2.4,0.38750000000000007,0.605,-2.4,1.9319857012928436,1.7133333333333336
1 -> 2,10.332253000000003,10.332252999999994,10.332252999999998,10.332253,10.332253000000003,4.259554063523935e-15,5.921189464667501e-16,58.0,58.0,58.0,58.0,58.0,0.0,0.0,34.030000000000015,34.02999999999999,34.03,34.03000000000001,34.030000000000015,1.2306961192854808e-14,4.736951571734001e-15,3.95,3.51,3.7925,3.855,3.51,0.1685786166748323,0.10666666666666676
1 -> 2,10.332253000000003,10.332252999999994,10.332252999999998,10.332253,10.332253000000003,4.259554063523935e-15,5.921189464667501e-16,58.0,58.0,58.0,58.0,58.0,0.0,0.0,34.030000000000015,34.02999999999999,34.03,34.03000000000001,34.030000000000015,1.2306961192854808e-14,4.736951571734001e-15,3.95,3.51,3.7925,3.855,3.51,0.1685786166748323,0.10666666666666676
1 -> 2,10.332253000000003,10.332252999999994,10.332252999999998,10.332253,10.332253000000003,4.259554063523935e-15,5.921189464667501e-16,58.0,58.0,58.0,58.0,58.0,0.0,0.0,34.030000000000015,34.02999999999999,34.03,34.03000000000001,34.030000000000015,1.2306961192854808e-14,4.736951571734001e-15,3.59,2.39,3.0375,3.085,2.39,0.4486298585694,-0.3999999999999999
1 -> 2,10.332253000000003,10.332252999999994,10.332252999999998,10.332253,10.332253000000003,4.259554063523935e-15,5.921189464667501e-16,58.0,58.0,58.0,58.0,58.0,0.0,0.0,34.030000000000015,34.02999999999999,34.03,34.03000000000001,34.030000000000015,1.2306961192854808e-14,4.736951571734001e-15,3.59,2.39,3.0375,3.085,2.39,0.4486298585694,-0.3999999999999999
1 -> 2,10.332253000000003,10.332252999999994,10.332252999999998,10.332253,10.332253000000003,4.259554063523935e-15,5.921189464667501e-16,58.0,58.0,58.0,58.0,58.0,0.0,0.0,34.030000000000015,34.02999999999999,34.03,34.03000000000001,34.030000000000015,1.2306961192854808e-14,4.736951571734001e-15,1.78,-0.43,0.6825,0.6900000000000001,-0.43,0.8262982209831994,-0.7366666666666667
1 -> 2,10.332253000000003,10.332252999999994,10.332252999999998,10.332253,10.332253000000003,4.259554063523935e-15,5.921189464667501e-16,58.0,58.0,58.0,58.0,58.0,0.0,0.0,34.030000000000015,34.02999999999999,34.03,34.03000000000001,34.030000000000015,1.2306961192854808e-14,4.736951571734001e-15,1.78,-0.43,0.6825,0.6900000000000001,-0.43,0.8262982209831994,-0.7366666666666667
1 -> 2,10.357854000000003,10.357853999999993,10.357853999999998,10.357853999999998,10.357853999999993,5.329070518200751e-15,0.0,58.5,58.5,58.5,58.5,58.5,0.0,0.0,34.000000000000014,33.99999999999998,34.0,34.0,34.000000000000014,1.6280579355608324e-14,2.3684757858670005e-15,-1.08,-2.28,-1.7349999999999999,-1.79,-2.28,0.4484138713287089,-0.3999999999999999
1 -> 2,10.357854000000003,10.357853999999993,10.357853999999998,10.357853999999998,10.357853999999993,5.329070518200751e-15,0.0,58.5,58.5,58.5,58.5,58.5,0.0,0.0,34.000000000000014,33.99999999999998,34.0,34.0,34.000000000000014,1.6280579355608324e-14,2.3684757858670005e-15,-1.08,-2.28,-1.7349999999999999,-1.79,-2.28,0.4484138713287089,-0.3999999999999999
1 -> 2,10.357854000000003,10.357853999999993,10.357853999999998,10.357853999999998,10.357853999999993,5.329070518200751e-15,0.0,58.5,58.5,58.5,58.5,58.5,0.0,0.0,34.000000000000014,33.99999999999998,34.0,34.0,34.000000000000014,1.6280579355608324e-14,2.3684757858670005e-15,-2.59,-4.12,-3.285,-3.215,-4.12,0.5722979992975689,-0.5100000000000001
1 -> 2,10.357854000000003,10.357853999999993,10.357853999999998,10.357853999999998,10.357853999999993,5.329070518200751e-15,0.0,58.5,58.5,58.5,58.5,58.5,0.0,0.0,34.000000000000014,33.99999999999998,34.0,34.0,34.000000000000014,1.6280579355608324e-14,2.3684757858670005e-15,-2.59,-4.12,-3.285,-3.215,-4.12,0.5722979992975689,-0.5100000000000001
1 -> 2,10.357854000000003,10.357853999999993,10.357853999999998,10.357853999999998,10.357853999999993,5.329070518200751e-15,0.0,58.5,58.5,58.5,58.5,58.5,0.0,0.0,34.000000000000014,33.99999999999998,34.0,34.0,34.000000000000014,1.6280579355608324e-14,2.3684757858670005e-15,-4.94,-8.21,-6.535,-6.494999999999999,-8.21,1.2238566092479952,-1.09
1 -> 2,10.357854000000003,10.357853999999993,10.357853999999998,10.357853999999998,10.357853999999993,5.329070518200751e-15,0.0,58.5,58.5,58.5,58.5,58.5,0.0,0.0,34.000000000000014,33.99999999999998,34.0,34.0,34.000000000000014,1.6280579355608324e-14,2.3684757858670005e-15,-4.94,-8.21,-6.535,-6.494999999999999,-8.21,1.2238566092479952,-1.09
1 -> 2,10.357854000000003,10.357853999999993,10.357853999999998,10.357853999999998,10.357853999999993,5.329070518200751e-15,0.0,58.5,58.5,58.5,58.5,58.5,0.0,0.0,34.000000000000014,33.99999999999998,34.0,34.0,34.000000000000014,1.6280579355608324e-14,2.3684757858670005e-15,-9.23,-10.01,-9.64,-9.66,-10.01,0.32078029864690877,-0.06666666666666643
1 -> 2,10.357854000000003,10.357853999999993,10.357853999999998,10.357853999999998,10.357853999999993,5.329070518200751e-15,0.0,58.5,58.5,58.5,58.5,58.5,0.0,0.0,34.000000000000014,33.99999999999998,34.0,34.0,34.000000000000014,1.6280579355608324e-14,2.3684757858670005e-15,-9.23,-10.01,-9.64,-9.66,-10.01,0.32078029864690877,-0.06666666666666643
1 -> 2,10.392415000000003,10.392414999999996,10.392415,10.392415,10.392415000000003,3.2023728339893768e-15,5.921189464667501e-16,58.5,58.5,58.5,58.5,58.5,0.0,0.0,34.000000000000014,33.99999999999998,34.0,34.0,34.000000000000014,1.6280579355608324e-14,2.3684757858670005e-15,-2.2,-8.18,-5.262499999999999,-5.335,-8.18,2.2408299243806966,1.9933333333333332
1 -> 2,10.392415000000003,10.392414999999996,10.392415,10.392415,10.392415000000003,3.2023728339893768e-15,5.921189464667501e-16,58.5,58.5,58.5,58.5,58.5,0.0,0.0,34.000000000000014,33.99999999999998,34.0,34.0,34.000000000000014,1.6280579355608324e-14,2.3684757858670005e-15,-2.2,-8.18,-5.262499999999999,-5.335,-8.18,2.2408299243806966,1.9933333333333332
1 -> 2,10.392415000000003,10.392414999999996,10.392415,10.392415,10.392415000000003,3.2023728339893768e-15,5.921189464667501e-16,58.5,58.5,58.5,58.5,58.5,0.0,0.0,34.000000000000014,33.99999999999998,34.0,34.0,34.000000000000014,1.6280579355608324e-14,2.3684757858670005e-15,3.07,-0.33,1.5575,1.745,-0.33,1.2805345563474655,1.1333333333333333
1 -> 2,10.392415000000003,10.392414999999996,10.392415,10.392415,10.392415000000003,3.2023728339893768e-15,5.921189464667501e-16,58.5,58.5,58.5,58.5,58.5,0.0,0.0,34.000000000000014,33.99999999999998,34.0,34.0,34.000000000000014,1.6280579355608324e-14,2.3684757858670005e-15,3.07,-0.33,1.5575,1.745,-0.33,1.2805345563474655,1.1333333333333333
1 -> 2,10.392415000000003,10.392414999999996,10.392415,10.392415,10.392415000000003,3.2023728339893768e-15,5.921189464667501e-16,58.5,58.5,58.5,58.5,58.5,0.0,0.0,34.000000000000014,33.99999999999998,34.0,34.0,34.000000000000014,1.6280579355608324e-14,2.3684757858670005e-15,3.61,2.83,3.3325,3.4450000000000003,2.83,0.30036436206713996,-0.2233333333333333
1 -> 2,10.392415000000003,10.392414999999996,10.392415,10.392415,10.392415000000003,3.2023728339893768e-15,5.921189464667501e-16,58.5,58.5,58.5,58.5,58.5,0.0,0.0,34.000000000000014,33.99999999999998,34.0,34.0,34.000000000000014,1.6280579355608324e-14,2.3684757858670005e-15,3.61,2.83,3.3325,3.4450000000000003,2.83,0.30036436206713996,-0.2233333333333333
1 -> 2,10.392415000000003,10.392414999999996,10.392415,10.392415,10.392415000000003,3.2023728339893768e-15,5.921189464667501e-16,58.5,58.5,58.5,58.5,58.5,0.0,0.0,34.000000000000014,33.99999999999998,34.0,34.0,34.000000000000014,1.6280579355608324e-14,2.3684757858670005e-15,1.98,-0.85,0.5125,0.45999999999999996,-0.85,1.062482352794624,-0.9433333333333334
1 -> 2,10.392415000000003,10.392414999999996,10.392415,10.392415,10.392415000000003,3.2023728339893768e-15,5.921189464667501e-16,58.5,58.5,58.5,58.5,58.5,0.0,0.0,34.000000000000014,33.99999999999998,34.0,34.0,34.000000000000014,1.6280579355608324e-14,2.3684757858670005e-15,1.98,-0.85,0.5125,0.45999999999999996,-0.85,1.062482352794624,-0.9433333333333334
1 -> 2,10.392415000000003,10.392414999999996,10.392415,10.392415,10.392415000000003,3.2023728339893768e-15,5.921189464667501e-16,58.5,58.5,58.5,58.5,58.5,0.0,0.0,34.000000000000014,33.99999999999998,34.0,34.0,34.000000000000014,1.6280579355608324e-14,2.3684757858670005e-15,-1.41,-2.47,-1.9250000000000003,-1.9100000000000001,-2.47,0.38977557645393857,-0.35333333333333344
1 -> 2,10.392415000000003,10.392414999999996,10.392415,10.392415,10.392415000000003,3.2023728339893768e-15,5.921189464667501e-16,58.5,58.5,58.5,58.5,58.5,0.0,0.0,34.000000000000014,33.99999999999998,34.0,34.0,34.000000000000014,1.6280579355608324e-14,2.3684757858670005e-15,-1.41,-2.47,-1.9250000000000003,-1.9100000000000001,-2.47,0.38977557645393857,-0.35333333333333344
1 -> 2,10.392415000000003,10.392414999999996,10.392415,10.392415,10.392415000000003,3.2023728339893768e-15,5.921189464667501e-16,58.5,58.5,58.5,58.5,58.5,0.0,0.0,34.000000000000014,33.99999999999998,34.0,34.0,34.000000000000014,1.6280579355608324e-14,2.3684757858670005e-15,-3.06,-5.19,-4.1450000000000005,-4.165,-5.19,0.7986394680955857,-0.7100000000000001
1 -> 2,10.392415000000003,10.392414999999996,10.392415,10.392415,10.392415000000003,3.2023728339893768e-15,5.921189464667501e-16,58.5,58.5,58.5,58.5,58.5,0.0,0.0,34.000000000000014,33.99999999999998,34.0,34.0,34.000000000000014,1.6280579355608324e-14,2.3684757858670005e-15,-3.06,-5.19,-4.1450000000000005,-4.165,-5.19,0.7986394680955857,-0.7100000000000001
1 -> 2,10.392415000000003,10.392414999999996,10.392415,10.392415,10.392415000000003,3.2023728339893768e-15,5.921189464667501e-16,58.5,58.5,58.5,58.5,58.5,0.0,0.0,34.000000000000014,33.99999999999998,34.0,34.0,34.000000000000014,1.6280579355608324e-14,2.3684757858670005e-15,-5.68,-7.52,-6.5,-6.4,-7.52,0.6873136110975832,-0.6133333333333333
1 -> 2,10.392415000000003,10.392414999999996,10.392415,10.392415,10.392415000000003,3.2023728339893768e-15,5.921189464667501e-16,58.5,58.5,58.5,58.5,58.5,0.0,0.0,34.000000000000014,33.99999999999998,34.0,34.0,34.000000000000014,1.6280579355608324e-14,2.3684757858670005e-15,-5.68,-7.52,-6.5,-6.4,-7.52,0.6873136110975832,-0.6133333333333333
1 -> 2,10.392415000000003,10.392414999999996,10.392415,10.392415,10.392415000000003,3.2023728339893768e-15,5.921189464667501e-16,58.5,58.5,58.5,58.5,58.5,0.0,0.0,34.000000000000014,33.99999999999998,34.0,34.0,34.000000000000014,1.6280579355608324e-14,2.3684757858670005e-15,-8.7,-12.3,-10.625,-10.75,-12.3,1.3614055237143712,-1.2000000000000004
1 -> 2,10.392415000000003,10.392414999999996,10.392415,10.392415,10.392415000000003,3.2023728339893768e-15,5.921189464667501e-16,58.5,58.5,58.5,58.5,58.5,0.0,0.0,34.000000000000014,33.99999999999998,34.0,34.0,34.000000000000014,1.6280579355608324e-14,2.3684757858670005e-15,-8.7,-12.3,-10.625,-10.75,-12.3,1.3614055237143712,-1.2000000000000004
1 -> 2,10.426975000000004,10.426974999999997,10.426975,10.426975000000002,10.426975000000004,3.076740298213702e-15,1.1842378929335002e-15,58.5,58.5,58.5,58.5,58.5,0.0,0.0,34.000000000000014,33.99999999999998,34.0,34.0,34.000000000000014,1.6280579355608324e-14,2.3684757858670005e-15,-8.04,-12.45,-10.58,-10.915,-12.45,1.6885940897681717,1.47
1 -> 2,10.426975000000004,10.426974999999997,10.426975,10.426975000000002,10.426975000000004,3.076740298213702e-15,1.1842378929335002e-15,58.5,58.5,58.5,58.5,58.5,0.0,0.0,34.000000000000014,33.99999999999998,34.0,34.0,34.000000000000014,1.6280579355608324e-14,2.3684757858670005e-15,-8.04,-12.45,-10.58,-10.915,-12.45,1.6885940897681717,1.47
1 -> 2,10.426975000000004,10.426974999999997,10.426975,10.426975000000002,10.426975000000004,3.076740298213702e-15,1.1842378929335002e-15,58.5,58.5,58.5,58.5,58.5,0.0,0.0,34.000000000000014,33.99999999999998,34.0,34.0,34.000000000000014,1.6280579355608324e-14,2.3684757858670005e-15,-0.47,-5.79,-2.975,-2.8200000000000003,-5.79,1.98721538842673,1.7733333333333334
1 -> 2,10.426975000000004,10.426974999999997,10.426975,10.426975000000002,10.426975000000004,3.076740298213702e-15,1.1842378929335002e-15,58.5,58.5,58.5,58.5,58.5,0.0,0.0,34.000000000000014,33.99999999999998,34.0,34.0,34.000000000000014,1.6280579355608324e-14,2.3684757858670005e-15,-0.47,-5.79,-2.975,-2.8200000000000003,-5.79,1.98721538842673,1.7733333333333334
1 -> 2,10.426975000000004,10.426974999999997,10.426975,10.426975000000002,10.426975000000004,3.076740298213702e-15,1.1842378929335002e-15,58.5,58.5,58.5,58.5,58.5,0.0,0.0,34.000000000000014,33.99999999999998,34.0,34.0,34.000000000000014,1.6280579355608324e-14,2.3684757858670005e-15,3.61,0.81,2.34,2.47,0.81,1.0591978096654089,0.9333333333333332
1 -> 2,10.426975000000004,10.426974999999997,10.426975,10.426975000000002,10.426975000000004,3.076740298213702e-15,1.1842378929335002e-15,58.5,58.5,58.5,58.5,58.5,0.0,0.0,34.000000000000014,33.99999999999998,34.0,34.0,34.000000000000014,1.6280579355608324e-14,2.3684757858670005e-15,3.61,0.81,2.34,2.47,0.81,1.0591978096654089,0.9333333333333332
1 -> 2,10.426975000000004,10.426974999999997,10.426975,10.426975000000002,10.426975000000004,3.076740298213702e-15,1.1842378929335002e-15,58.5,58.5,58.5,58.5,58.5,0.0,0.0,34.000000000000014,33.99999999999998,34.0,34.0,34.000000000000014,1.6280579355608324e-14,2.3684757858670005e-15,3.72,1.13,2.6025,2.7800000000000002,1.13,0.9901862198596788,-0.8633333333333334
1 -> 2,10.426975000000004,10.426974999999997,10.426975,10.426975000000002,10.426975000000004,3.076740298213702e-15,1.1842378929335002e-15,58.5,58.5,58.5,58.5,58.5,0.0,0.0,34.000000000000014,33.99999999999998,34.0,34.0,34.000000000000014,1.6280579355608324e-14,2.3684757858670005e-15,3.72,1.13,2.6025,2.7800000000000002,1.13,0.9901862198596788,-0.8633333333333334
1 -> 2,10.452576000000004,10.452575999999997,10.452576000000002,10.452576000000004,10.452576000000004,2.945754565036118e-15,1.7763568394002505e-15,66.67,66.67,66.67,66.67,66.67,0.0,0.0,34.000000000000014,33.99999999999998,34.0,34.0,34.000000000000014,1.6280579355608324e-14,2.3684757858670005e-15,-0.09,-4.1,-2.0225,-1.95,-4.1,1.4899895133859162,-1.3366666666666667
1 -> 2,10.452576000000004,10.452575999999997,10.452576000000002,10.452576000000004,10.452576000000004,2.945754565036118e-15,1.7763568394002505e-15,66.67,66.67,66.67,66.67,66.67,0.0,0.0,34.000000000000014,33.99999999999998,34.0,34.0,34.000000000000014,1.6280579355608324e-14,2.3684757858670005e-15,-0.09,-4.1,-2.0225,-1.95,-4.1,1.4899895133859162,-1.3366666666666667
1 -> 2,10.452576000000004,10.452575999999997,10.452576000000002,10.452576000000004,10.452576000000004,2.945754565036118e-15,1.7763568394002505e-15,66.67,66.67,66.67,66.67,66.67,0.0,0.0,34.000000000000014,33.99999999999998,34.0,34.0,34.000000000000014,1.6280579355608324e-14,2.3684757858670005e-15,-5.92,-12.76,-9.275,-9.21,-12.76,2.5544519960257617,-2.28
1 -> 2,10.452576000000004,10.452575999999997,10.452576000000002,10.452576000000004,10.452576000000004,2.945754565036118e-15,1.7763568394002505e-15,66.67,66.67,66.67,66.67,66.67,0.0,0.0,34.000000000000014,33.99999999999998,34.0,34.0,34.000000000000014,1.6280579355608324e-14,2.3684757858670005e-15,-5.92,-12.76,-9.275,-9.21,-12.76,2.5544519960257617,-2.28
1 -> 2,10.452576000000004,10.452575999999997,10.452576000000002,10.452576000000004,10.452576000000004,2.945754565036118e-15,1.7763568394002505e-15,66.67,66.67,66.67,66.67,66.67,0.0,0.0,34.000000000000014,33.99999999999998,34.0,34.0,34.000000000000014,1.6280579355608324e-14,2.3684757858670005e-15,-15.11,-21.58,-18.41,-18.475,-21.58,2.4135969008929385,-2.1566666666666663
1 -> 2,10.452576000000004,10.452575999999997,10.452576000000002,10.452576000000004,10.452576000000004,2.945754565036118e-15,1.7763568394002505e-15,66.67,66.67,66.67,66.67,66.67,0.0,0.0,34.000000000000014,33.99999999999998,34.0,34.0,34.000000000000014,1.6280579355608324e-14,2.3684757858670005e-15,-15.11,-21.58,-18.41,-18.475,-21.58,2.4135969008929385,-2.1566666666666663
1 -> 2,10.452576000000004,10.452575999999997,10.452576000000002,10.452576000000004,10.452576000000004,2.945754565036118e-15,1.7763568394002505e-15,66.67,66.67,66.67,66.67,66.67,0.0,0.0,34.000000000000014,33.99999999999998,34.0,34.0,34.000000000000014,1.6280579355608324e-14,2.3684757858670005e-15,-23.4,-27.48,-25.5475,-25.655,-27.48,1.5232100150668657,-1.3600000000000005
1 -> 2,10.452576000000004,10.452575999999997,10.452576000000002,10.452576000000004,10.452576000000004,2.945754565036118e-15,1.7763568394002505e-15,66.67,66.67,66.67,66.67,66.67,0.0,0.0,34.000000000000014,33.99999999999998,34.0,34.0,34.000000000000014,1.6280579355608324e-14,2.3684757858670005e-15,-23.4,-27.48,-25.5475,-25.655,-27.48,1.5232100150668657,-1.3600000000000005
1 -> 2,10.481977000000004,10.481976999999999,10.481977,10.481977000000002,10.481977000000004,2.6645352591003757e-15,5.921189464667501e-16,66.67,66.67,66.67,66.67,66.67,0.0,0.0,34.000000000000014,33.99999999999998,34.0,34.0,34.000000000000014,1.6280579355608324e-14,2.3684757858670005e-15,-28.43,-29.21,-28.825,-28.83,-29.21,0.32760494501762366,-0.049999999999999524
1 -> 2,10.481977000000004,10.481976999999999,10.481977,10.481977000000002,10.481977000000004,2.6645352591003757e-15,5.921189464667501e-16,66.67,66.67,66.67,66.67,66.67,0.0,0.0,34.000000000000014,33.99999999999998,34.0,34.0,34.000000000000014,1.6280579355608324e-14,2.3684757858670005e-15,-28.43,-29.21,-28.825,-28.83,-29.21,0.32760494501762366,-0.049999999999999524
1 -> 2,10.481977000000004,10.481976999999999,10.481977,10.481977000000002,10.481977000000004,2.6645352591003757e-15,5.921189464667501e-16,66.67,66.67,66.67,66.67,66.67,0.0,0.0,34.000000000000014,33.99999999999998,34.0,34.0,34.000000000000014,1.6280579355608324e-14,2.3684757858670005e-15,-15.75,-26.98,-21.880000000000003,-22.395000000000003,-26.98,4.219709705655118,3.7433333333333336
1 -> 2,10.481977000000004,10.481976999999999,10.481977,10.481977000000002,10.481977000000004,2.6645352591003757e-15,5.921189464667501e-16,66.67,66.67,66.67,66.67,66.67,0.0,0.0,34.000000000000014,33.99999999999998,34.0,34.0,34.000000000000014,1.6280579355608324e-14,2.3684757858670005e-15,-15.75,-26.98,-21.880000000000003,-22.395000000000003,-26.98,4.219709705655118,3.7433333333333336
1 -> 2,10.481977000000004,10.481976999999999,10.481977,10.481977000000002,10.481977000000004,2.6645352591003757e-15,5.921189464667501e-16,66.67,66.67,66.67,66.67,66.67,0.0,0.0,34.000000000000014,33.99999999999998,34.0,34.0,34.000000000000014,1.6280579355608324e-14,2.3684757858670005e-15,7.92,-10.2,-1.0974999999999997,-1.0550000000000002,-10.2,6.770016155815287,6.039999999999999
1 -> 2,10.481977000000004,10.481976999999999,10.481977,10.481977000000002,10.481977000000004,2.6645352591003757e-15,5.921189464667501e-16,66.67,66.67,66.67,66.67,66.67,0.0,0.0,34.000000000000014,33.99999999999998,34.0,34.0,34.000000000000014,1.6280579355608324e-14,2.3684757858670005e-15,7.92,-10.2,-1.0974999999999997,-1.0550000000000002,-10.2,6.770016155815287,6.039999999999999
1 -> 2,10.481977000000004,10.481976999999999,10.481977,10.481977000000002,10.481977000000004,2.6645352591003757e-15,5.921189464667501e-16,66.67,66.67,66.67,66.67,66.67,0.0,0.0,34.000000000000014,33.99999999999998,34.0,34.0,34.000000000000014,1.6280579355608324e-14,2.3684757858670005e-15,21.65,13.05,17.945,18.54,13.05,3.256873500767261,2.866666666666666
1 -> 2,10.481977000000004,10.481976999999999,10.481977,10.481977000000002,10.481977000000004,2.6645352591003757e-15,5.921189464667501e-16,66.67,66.67,66.67,66.67,66.67,0.0,0.0,34.000000000000014,33.99999999999998,34.0,34.0,34.000000000000014,1.6280579355608324e-14,2.3684757858670005e-15,21.65,13.05,17.945,18.54,13.05,3.256873500767261,2.866666666666666
1 -> 2,10.437178000000003,10.437177999999996,10.437178,10.437178000000001,10.437178000000003,3.076740298213702e-15,1.1842378929335002e-15,66.67,66.67,66.67,66.67,66.67,0.0,0.0,34.000000000000014,33.99999999999998,34.0,34.0,34.000000000000014,1.6280579355608324e-14,2.3684757858670005e-15,22.36,21.23,21.96,22.125,21.23,0.4605974381170612,-0.3766666666666663
1 -> 2,10.437178000000003,10.437177999999996,10.437178,10.437178000000001,10.437178000000003,3.076740298213702e-15,1.1842378929335002e-15,66.67,66.67,66.67,66.67,66.67,0.0,0.0,34.000000000000014,33.99999999999998,34.0,34.0,34.000000000000014,1.6280579355608324e-14,2.3684757858670005e-15,22.36,21.23,21.96,22.125,21.23,0.4605974381170612,-0.3766666666666663
1 -> 2,10.437178000000003,10.437177999999996,10.437178,10.437178000000001,10.437178000000003,3.076740298213702e-15,1.1842378929335002e-15,66.67,66.67,66.67,66.67,66.67,0.0,0.0,34.000000000000014,33.99999999999998,34.0,34.0,34.000000000000014,1.6280579355608324e-14,2.3684757858670005e-15,20.52,19.42,19.8625,19.755000000000003,19.42,0.42416830386062504,-0.366666666666666
1 -> 2,10.437178000000003,10.437177999999996,10.437178,10.437178000000001,10.437178000000003,3.076740298213702e-15,1.1842378929335002e-15,66.67,66.67,66.67,66.67,66.67,0.0,0.0,34.000000000000014,33.99999999999998,34.0,34.0,34.000000000000014,1.6280579355608324e-14,2.3684757858670005e-15,20.52,19.42,19.8625,19.755000000000003,19.42,0.42416830386062504,-0.366666666666666
1 -> 2,10.437178000000003,10.437177999999996,10.437178,10.437178000000001,10.437178000000003,3.076740298213702e-15,1.1842378929335002e-15,66.67,66.67,66.67,66.67,66.67,0.0,0.0,34.000000000000014,33.99999999999998,34.0,34.0,34.000000000000014,1.6280579355608324e-14,2.3684757858670005e-15,19.46,19.29,19.4025,19.43,19.43,0.06609652033201191,-0.046666666666666856
1 -> 2,10.437178000000003,10.437177999999996,10.437178,10.437178000000001,10.437178000000003,3.076740298213702e-15,1.1842378929335002e-15,66.67,66.67,66.67,66.67,66.67,0.0,0.0,34.000000000000014,33.99999999999998,34.0,34.0,34.000000000000014,1.6280579355608324e-14,2.3684757858670005e-15,19.46,19.29,19.4025,19.43,19.43,0.06609652033201191,-0.046666666666666856
1 -> 2,10.437178000000003,10.437177999999996,10.437178,10.437178000000001,10.437178000000003,3.076740298213702e-15,1.1842378929335002e-15,66.67,66.67,66.67,66.67,66.67,0.0,0.0,34.000000000000014,33.99999999999998,34.0,34.0,34.000000000000014,1.6280579355608324e-14,2.3684757858670005e-15,19.38,19.02,19.155,19.11,19.02,0.13518505834595723,0.086666666666666
1 -> 2,10.437178000000003,10.437177999999996,10.437178,10.437178000000001,10.437178000000003,3.076740298213702e-15,1.1842378929335002e-15,66.67,66.67,66.67,66.67,66.67,0.0,0.0,34.000000000000014,33.99999999999998,34.0,34.0,34.000000000000014,1.6280579355608324e-14,2.3684757858670005e-15,19.38,19.02,19.155,19.11,19.02,0.13518505834595723,0.086666666666666
1 -> 2,10.391096000000003,10.391095999999996,10.391096,10.391096,10.391095999999996,3.552713678800501e-15,0.0,66.67,66.67,66.67,66.67,66.67,0.0,0.0,34.000000000000014,33.99999999999998,34.0,34.0,34.000000000000014,1.6280579355608324e-14,2.3684757858670005e-15,20.07,19.35,19.8,19.89,19.35,0.2809804263645418,-0.14333333333333323
1 -> 2,10.391096000000003,10.391095999999996,10.391096,10.391096,10.391095999999996,3.552713678800501e-15,0.0,66.67,66.67,66.67,66.67,66.67,0.0,0.0,34.000000000000014,33.99999999999998,34.0,34.0,34.000000000000014,1.6280579355608324e-14,2.3684757858670005e-15,20.07,19.35,19.8,19.89,19.35,0.2809804263645418,-0.14333333333333323
1 -> 2,10.391096000000003,10.391095999999996,10.391096,10.391096,10.391095999999996,3.552713678800501e-15,0.0,66.67,66.67,66.67,66.67,66.67,0.0,0.0,34.000000000000014,33.99999999999998,34.0,34.0,34.000000000000014,1.6280579355608324e-14,2.3684757858670005e-15,18.06,12.8,15.377500000000001,15.325,12.8,1.9791964910033562,-1.7533333333333327
1 -> 2,10.391096000000003,10.391095999999996,10.391096,10.391096,10.391095999999996,3.552713678800501e-15,0.0,66.67,66.67,66.67,66.67,66.67,0.0,0.0,34.000000000000014,33.99999999999998,34.0,34.0,34.000000000000014,1.6280579355608324e-14,2.3684757858670005e-15,18.06,12.8,15.377500000000001,15.325,12.8,1.9791964910033562,-1.7533333333333327
1 -> 2,10.391096000000003,10.391095999999996,10.391096,10.391096,10.391095999999996,3.552713678800501e-15,0.0,66.67,66.67,66.67,66.67,66.67,0.0,0.0,34.000000000000014,33.99999999999998,34.0,34.0,34.000000000000014,1.6280579355608324e-14,2.3684757858670005e-15,14.82,11.95,12.975,12.565000000000001,11.95,1.153397156230238,0.956666666666667
1 -> 2,10.391096000000003,10.391095999999996,10.391096,10.391096,10.391095999999996,3.552713678800501e-15,0.0,66.67,66.67,66.67,66.67,66.67,0.0,0.0,34.000000000000014,33.99999999999998,34.0,34.0,34.000000000000014,1.6280579355608324e-14,2.3684757858670005e-15,14.82,11.95,12.975,12.565000000000001,11.95,1.153397156230238,0.956666666666667
1 -> 2,10.391096000000003,10.391095999999996,10.391096,10.391096,10.391095999999996,3.552713678800501e-15,0.0,66.67,66.67,66.67,66.67,66.67,0.0,0.0,34.000000000000014,33.99999999999998,34.0,34.0,34.000000000000014,1.6280579355608324e-14,2.3684757858670005e-15,22.19,16.95,19.802500000000002,20.035,16.95,1.978400553477481,1.7466666666666673
1 -> 2,10.391096000000003,10.391095999999996,10.391096,10.391096,10.391095999999996,3.552713678800501e-15,0.0,66.67,66.67,66.67,66.67,66.67,0.0,0.0,34.000000000000014,33.99999999999998,34.0,34.0,34.000000000000014,1.6280579355608324e-14,2.3684757858670005e-15,22.19,16.95,19.802500000000002,20.035,16.95,1.978400553477481,1.7466666666666673
1 -> 2,10.389816000000003,10.389815999999996,10.389816,10.389816,10.389816000000003,3.2023728339893768e-15,5.921189464667501e-16,64.75,64.75,64.75,64.75,64.75,0.0,0.0,33.990000000000016,33.98999999999998,33.99,33.99000000000001,33.990000000000016,1.507288760336424e-14,9.473903143468002e-15,22.58,18.44,20.895,21.28,18.44,1.5991013101114004,-1.379999999999999
1 -> 2,10.389816000000003,10.389815999999996,10.389816,10.389816,10.389816000000003,3.2023728339893768e-15,5.921189464667501e-16,64.75,64.75,64.75,64.75,64.75,0.0,0.0,33.990000000000016,33.98999999999998,33.99,33.99000000000001,33.990000000000016,1.507288760336424e-14,9.473903143468002e-15,22.58,18.44,20.895,21.28,18.44,1.5991013101114004,-1.379999999999999
1 -> 2,10.389816000000003,10.389815999999996,10.389816,10.389816,10.389816000000003,3.2023728339893768e-15,5.921189464667501e-16,64.75,64.75,64.75,64.75,64.75,0.0,0.0,33.990000000000016,33.98999999999998,33.99,33.99000000000001,33.990000000000016,1.507288760336424e-14,9.473903143468002e-15,16.04,10.18,12.92,12.73,10.18,2.195130975591206,-1.9533333333333331
1 -> 2,10.389816000000003,10.389815999999996,10.389816,10.389816,10.389816000000003,3.2023728339893768e-15,5.921189464667501e-16,64.75,64.75,64.75,64.75,64.75,0.0,0.0,33.990000000000016,33.98999999999998,33.99,33.99000000000001,33.990000000000016,1.507288760336424e-14,9.473903143468002e-15,16.04,10.18,12.92,12.73,10.18,2.195130975591206,-1.9533333333333331
1 -> 2,10.389816000000003,10.389815999999996,10.389816,10.389816,10.389816000000003,3.2023728339893768e-15,5.921189464667501e-16,64.75,64.75,64.75,64.75,64.75,0.0,0.0,33.990000000000016,33.98999999999998,33.99,33.99000000000001,33.990000000000016,1.507288760336424e-14,9.473903143468002e-15,8.97,5.71,7.365,7.390000000000001,5.71,1.2122396627730014,-1.086666666666667
1 -> 2,10.389816000000003,10.389815999999996,10.389816,10.389816,10.389816000000003,3.2023728339893768e-15,5.921189464667501e-16,64.75,64.75,64.75,64.75,64.75,0.0,0.0,33.990000000000016,33.98999999999998,33.99,33.99000000000001,33.990000000000016,1.507288760336424e-14,9.473903143468002e-15,8.97,5.71,7.365,7.390000000000001,5.71,1.2122396627730014,-1.086666666666667
1 -> 2,10.389816000000003,10.389815999999996,10.389816,10.389816,10.389816000000003,3.2023728339893768e-15,5.921189464667501e-16,64.75,64.75,64.75,64.75,64.75,0.0,0.0,33.990000000000016,33.98999999999998,33.99,33.99000000000001,33.990000000000016,1.507288760336424e-14,9.473903143468002e-15,4.47,1.43,2.8425,2.735,1.43,1.1421771972859551,-1.0133333333333334
1 -> 2,10.389816000000003,10.389815999999996,10.389816,10.389816,10.389816000000003,3.2023728339893768e-15,5.921189464667501e-16,64.75,64.75,64.75,64.75,64.75,0.0,0.0,33.990000000000016,33.98999999999998,33.99,33.99000000000001,33.990000000000016,1.507288760336424e-14,9.473903143468002e-15,4.47,1.43,2.8425,2.735,1.43,1.1421771972859551,-1.0133333333333334
1 -> 2,10.382136000000003,10.382135999999997,10.382136,10.382136,10.382135999999997,2.808666774861361e-15,0.0,64.75,64.75,64.75,64.75,64.75,0.0,0.0,33.990000000000016,33.98999999999998,33.99,33.99000000000001,33.990000000000016,1.507288760336424e-14,9.473903143468002e-15,1.24,0.85,1.01,0.975,0.85,0.14230249470757708,0.08666666666666667
1 -> 2,10.382136000000003,10.382135999999997,10.382136,10.382136,10.382135999999997,2.808666774861361e-15,0.0,64.75,64.75,64.75,64.75,64.75,0.0,0.0,33.990000000000016,33.98999999999998,33.99,33.99000000000001,33.990000000000016,1.507288760336424e-14,9.473903143468002e-15,1.24,0.85,1.01,0.975,0.85,0.14230249470757708,0.08666666666666667
1 -> 2,10.382136000000003,10.382135999999997,10.382136,10.382136,10.382135999999997,2.808666774861361e-15,0.0,64.75,64.75,64.75,64.75,64.75,0.0,0.0,33.990000000000016,33.98999999999998,33.99,33.99000000000001,33.990000000000016,1.507288760336424e-14,9.473903143468002e-15,1.82,1.55,1.68,1.675,1.55,0.12549900398011132,-0.003333333333333336
1 -> 2,10.382136000000003,10.382135999999997,10.382136,10.382136,10.382135999999997,2.808666774861361e-15,0.0,64.75,64.75,64.75,64.75,64.75,0.0,0.0,33.990000000000016,33.98999999999998,33.99,33.99000000000001,33.990000000000016,1.507288760336424e-14,9.473903143468002e-15,1.82,1.55,1.68,1.675,1.55,0.12549900398011132,-0.003333333333333336
1 -> 2,10.382136000000003,10.382135999999997,10.382136,10.382136,10.382135999999997,2.808666774861361e-15,0.0,64.75,64.75,64.75,64.75,64.75,0.0,0.0,33.990000000000016,33.98999999999998,33.99,33.99000000000001,33.990000000000016,1.507288760336424e-14,9.473903143468002e-15,0.94,-1.13,-0.20499999999999996,-0.315,-1.13,0.7935521406939811,-0.69
1 -> 2,10.382136000000003,10.382135999999997,10.382136,10.382136,10.382135999999997,2.808666774861361e-15,0.0,64.75,64.75,64.75,64.75,64.75,0.0,0.0,33.990000000000016,33.98999999999998,33.99,33.99000000000001,33.990000000000016,1.507288760336424e-14,9.473903143468002e-15,0.94,-1.13,-0.20499999999999996,-0.315,-1.13,0.7935521406939811,-0.69
1 -> 2,10.382136000000003,10.382135999999997,10.382136,10.382136,10.382135999999997,2.808666774861361e-15,0.0,64.75,64.75,64.75,64.75,64.75,0.0,0.0,33.990000000000016,33.98999999999998,33.99,33.99000000000001,33.990000000000016,1.507288760336424e-14,9.473903143468002e-15,6.29,-0.73,2.3475,1.915,-0.73,2.6618074216592,2.34
1 -> 2,10.382136000000003,10.382135999999997,10.382136,10.382136,10.382135999999997,2.808666774861361e-15,0.0,64.75,64.75,64.75,64.75,64.75,0.0,0.0,33.990000000000016,33.98999999999998,33.99,33.99000000000001,33.990000000000016,1.507288760336424e-14,9.473903143468002e-15,6.29,-0.73,2.3475,1.915,-0.73,2.6618074216592,2.34
1 -> 2,10.371896000000003,10.371895999999994,10.371896000000001,10.371896000000003,10.371896000000003,3.76822190084106e-15,2.3684757858670005e-15,64.75,64.75,64.75,64.75,64.75,0.0,0.0,33.990000000000016,33.98999999999998,33.99,33.99000000000001,33.990000000000016,1.507288760336424e-14,9.473903143468002e-15,17.87,9.71,14.07,14.350000000000001,9.71,3.0583982736066275,2.72
1 -> 2,10.371896000000003,10.371895999999994,10.371896000000001,10.371896000000003,10.371896000000003,3.76822190084106e-15,2.3684757858670005e-15,64.75,64.75,64.75,64.75,64.75,0.0,0.0,33.990000000000016,33.98999999999998,33.99,33.99000000000001,33.990000000000016,1.507288760336424e-14,9.473903143468002e-15,17.87,9.71,14.07,14.350000000000001,9.71,3.0583982736066275,2.72
1 -> 2,10.371896000000003,10.371895999999994,10.371896000000001,10.371896000000003,10.371896000000003,3.76822190084106e-15,2.3684757858670005e-15,64.75,64.75,64.75,64.75,64.75,0.0,0.0,33.990000000000016,33.98999999999998,33.99,33.99000000000001,33.990000000000016,1.507288760336424e-14,9.473903143468002e-15,21.18,19.41,20.512500000000003,20.73,19.41,0.6935191057209596,0.5899999999999999
1 -> 2,10.371896000000003,10.371895999999994,10.371896000000001,10.371896000000003,10.371896000000003,3.76822190084106e-15,2.3684757858670005e-15,64.75,64.75,64.75,64.75,64.75,0.0,0.0,33.990000000000016,33.98999999999998,33.99,33.99000000000001,33.990000000000016,1.507288760336424e-14,9.473903143468002e-15,21.18,19.41,20.512500000000003,20.73,19.41,0.6935191057209596,0.5899999999999999
1 -> 2,10.371896000000003,10.371895999999994,10.371896000000001,10.371896000000003,10.371896000000003,3.76822190084106e-15,2.3684757858670005e-15,64.75,64.75,64.75,64.75,64.75,0.0,0.0,33.990000000000016,33.98999999999998,33.99,33.99000000000001,33.990000000000016,1.507288760336424e-14,9.473903143468002e-15,20.93,17.94,19.6025,19.770000000000003,17.94,1.1294329329358157,-0.9966666666666661
1 -> 2,10.371896000000003,10.371895999999994,10.371896000000001,10.371896000000003,10.371896000000003,3.76822190084106e-15,2.3684757858670005e-15,64.75,64.75,64.75,64.75,64.75,0.0,0.0,33.990000000000016,33.98999999999998,33.99,33.99000000000001,33.990000000000016,1.507288760336424e-14,9.473903143468002e-15,20.93,17.94,19.6025,19.770000000000003,17.94,1.1294329329358157,-0.9966666666666661
1 -> 2,10.371896000000003,10.371895999999994,10.371896000000001,10.371896000000003,10.371896000000003,3.76822190084106e-15,2.3684757858670005e-15,64.75,64.75,64.75,64.75,64.75,0.0,0.0,33.990000000000016,33.98999999999998,33.99,33.99000000000001,33.990000000000016,1.507288760336424e-14,9.473903143468002e-15,16.4,10.75,13.645,13.715,10.75,2.107540035206923,-1.8833333333333329
1 -> 2,10.371896000000003,10.371895999999994,10.371896000000001,10.371896000000003,10.371896000000003,3.76822190084106e-15,2.3684757858670005e-15,64.75,64.75,64.75,64.75,64.75,0.0,0.0,33.990000000000016,33.98999999999998,33.99,33.99000000000001,33.990000000000016,1.507288760336424e-14,9.473903143468002e-15,16.4,10.75,13.645,13.715,10.75,2.107540035206923,-1.8833333333333329
1 -> 2,10.360376000000004,10.360375999999997,10.360376000000002,10.360376000000002,10.360376000000004,3.4399002279594067e-15,5.921189464667501e-16,64.75,64.75,64.75,64.75,64.75,0.0,0.0,33.990000000000016,33.98999999999998,33.99,33.99000000000001,33.990000000000016,1.507288760336424e-14,9.473903143468002e-15,8.64,2.06,5.3525,5.355,2.06,2.454092245617512,-2.1933333333333334
1 -> 2,10.360376000000004,10.360375999999997,10.360376000000002,10.360376000000002,10.360376000000004,3.4399002279594067e-15,5.921189464667501e-16,64.75,64.75,64.75,64.75,64.75,0.0,0.0,33.990000000000016,33.98999999999998,33.99,33.99000000000001,33.990000000000016,1.507288760336424e-14,9.473903143468002e-15,8.64,2.06,5.3525,5.355,2.06,2.454092245617512,-2.1933333333333334
1 -> 2,10.360376000000004,10.360375999999997,10.360376000000002,10.360376000000002,10.360376000000004,3.4399002279594067e-15,5.921189464667501e-16,64.75,64.75,64.75,64.75,64.75,0.0,0.0,33.990000000000016,33.98999999999998,33.99,33.99000000000001,33.990000000000016,1.507288760336424e-14,9.473903143468002e-15,-0.08,-5.88,-3.045,-3.1100000000000003,-5.88,2.163255648322685,-1.9333333333333333
1 -> 2,10.360376000000004,10.360375999999997,10.360376000000002,10.360376000000002,10.360376000000004,3.4399002279594067e-15,5.921189464667501e-16,64.75,64.75,64.75,64.75,64.75,0.0,0.0,33.990000000000016,33.98999999999998,33.99,33.99000000000001,33.990000000000016,1.507288760336424e-14,9.473903143468002e-15,-0.08,-5.88,-3.045,-3.1100000000000003,-5.88,2.163255648322685,-1.9333333333333333
1 -> 2,10.360376000000004,10.360375999999997,10.360376000000002,10.360376000000002,10.360376000000004,3.4399002279594067e-15,5.921189464667501e-16,64.75,64.75,64.75,64.75,64.75,0.0,0.0,33.990000000000016,33.98999999999998,33.99,33.99000000000001,33.990000000000016,1.507288760336424e-14,9.473903143468002e-15,-7.55,-12.4,-9.959999999999999,-9.945,-12.4,1.8045913664871616,-1.616666666666667
1 -> 2,10.360376000000004,10.360375999999997,10.360376000000002,10.360376000000002,10.360376000000004,3.4399002279594067e-15,5.921189464667501e-16,64.75,64.75,64.75,64.75,64.75,0.0,0.0,33.990000000000016,33.98999999999998,33.99,33.99000000000001,33.990000000000016,1.507288760336424e-14,9.473903143468002e-15,-7.55,-12.4,-9.959999999999999,-9.945,-12.4,1.8045913664871616,-1.616666666666667
1 -> 2,10.360376000000004,10.360375999999997,10.360376000000002,10.360376000000002,10.360376000000004,3.4399002279594067e-15,5.921189464667501e-16,64.75,64.75,64.75,64.75,64.75,0.0,0.0,33.990000000000016,33.98999999999998,33.99,33.99000000000001,33.990000000000016,1.507288760336424e-14,9.473903143468002e-15,-14.17,-19.79,-17.012500000000003,-17.045,-19.79,2.1011232115228275,-1.873333333333333
1 -> 2,10.360376000000004,10.360375999999997,10.360376000000002,10.360376000000002,10.360376000000004,3.4399002279594067e-15,5.921189464667501e-16,64.75,64.75,64.75,64.75,64.75,0.0,0.0,33.990000000000016,33.98999999999998,33.99,33.99000000000001,33.990000000000016,1.507288760336424e-14,9.473903143468002e-15,-14.17,-19.79,-17.012500000000003,-17.045,-19.79,2.1011232115228275,-1.873333333333333
1 -> 2,10.350136000000003,10.350136000000001,10.350136000000003,10.350136000000003,10.350136000000003,8.881784197001252e-16,-5.921189464667501e-16,66.4,66.4,66.4,66.4,66.4,0.0,0.0,33.97000000000001,33.96999999999998,33.97,33.97,33.97000000000001,1.6280579355608324e-14,2.3684757858670005e-15,-20.07,-21.81,-21.1325,-21.325,-21.81,0.6550715609763555,0.3633333333333333
1 -> 2,10.350136000000003,10.350136000000001,10.350136000000003,10.350136000000003,10.350136000000003,8.881784197001252e-16,-5.921189464667501e-16,66.4,66.4,66.4,66.4,66.4,0.0,0.0,33.97000000000001,33.96999999999998,33.97,33.97,33.97000000000001,1.6280579355608324e-14,2.3684757858670005e-15,-20.07,-21.81,-21.1325,-21.325,-21.81,0.6550715609763555,0.3633333333333333
1 -> 2,10.350136000000003,10.350136000000001,10.350136000000003,10.350136000000003,10.350136000000003,8.881784197001252e-16,-5.921189464667501e-16,66.4,66.4,66.4,66.4,66.4,0.0,0.0,33.97000000000001,33.96999999999998,33.97,33.97,33.97000000000001,1.6280579355608324e-14,2.3684757858670005e-15,-7.2,-17.62,-12.495000000000001,-12.58,-17.62,3.900938989525471,3.473333333333334
1 -> 2,10.350136000000003,10.350136000000001,10.350136000000003,10.350136000000003,10.350136000000003,8.881784197001252e-16,-5.921189464667501e-16,66.4,66.4,66.4,66.4,66.4,0.0,0.0,33.97000000000001,33.96999999999998,33.97,33.97,33.97000000000001,1.6280579355608324e-14,2.3684757858670005e-15,-7.2,-17.62,-12.495000000000001,-12.58,-17.62,3.900938989525471,3.473333333333334
1 -> 2,10.350136000000003,10.350136000000001,10.350136000000003,10.350136000000003,10.350136000000003,8.881784197001252e-16,-5.921189464667501e-16,66.4,66.4,66.4,66.4,66.4,0.0,0.0,33.97000000000001,33.96999999999998,33.97,33.97,33.97000000000001,1.6280579355608324e-14,2.3684757858670005e-15,1.72,-4.04,-0.8500000000000001,-0.54,-4.04,2.166691025504098,1.92
1 -> 2,10.350136000000003,10.350136000000001,10.350136000000003,10.350136000000003,10.350136000000003,8.881784197001252e-16,-5.921189464667501e-16,66.4,66.4,66.4,66.4,66.4,0.0,0.0,33.97000000000001,33.96999999999998,33.97,33.97,33.97000000000001,1.6280579355608324e-14,2.3684757858670005e-15,1.72,-4.04,-0.8500000000000001,-0.54,-4.04,2.166691025504098,1.92
1 -> 2,10.350136000000003,10.350136000000001,10.350136000000003,10.350136000000003,10.350136000000003,8.881784197001252e-16,-5.921189464667501e-16,66.4,66.4,66.4,66.4,66.4,0.0,0.0,33.97000000000001,33.96999999999998,33.97,33.97,33.97000000000001,1.6280579355608324e-14,2.3684757858670005e-15,3.48,2.57,3.13,3.235,2.57,0.3536240942017385,0.3033333333333334
1 -> 2,10.350136000000003,10.350136000000001,10.350136000000003,10.350136000000003,10.350136000000003,8.881784197001252e-16,-5.921189464667501e-16,66.4,66.4,66.4,66.4,66.4,0.0,0.0,33.97000000000001,33.96999999999998,33.97,33.97,33.97000000000001,1.6280579355608324e-14,2.3684757858670005e-15,3.48,2.57,3.13,3.235,2.57,0.3536240942017385,0.3033333333333334
1 -> 2,10.346295000000003,10.346294999999998,10.346295000000001,10.346295000000001,10.346295000000003,2.3498992183808826e-15,5.921189464667501e-16,66.4,66.4,66.4,66.4,66.4,0.0,0.0,33.97000000000001,33.96999999999998,33.97,33.97,33.97000000000001,1.6280579355608324e-14,2.3684757858670005e-15,3.44,2.96,3.2125000000000004,3.225,2.96,0.18046814123273947,-0.16
1 -> 2,10.346295000000003,10.346294999999998,10.346295000000001,10.346295000000001,10.346295000000003,2.3498992183808826e-15,5.921189464667501e-16,66.4,66.4,66.4,66.4,66.4,0.0,0.0,33.97000000000001,33.96999999999998,33.97,33.97,33.97000000000001,1.6280579355608324e-14,2.3684757858670005e-15,3.44,2.96,3.2125000000000004,3.225,2.96,0.18046814123273947,-0.16
1 -> 2,10.346295000000003,10.346294999999998,10.346295000000001,10.346295000000001,10.346295000000003,2.3498992183808826e-15,5.921189464667501e-16,66.4,66.4,66.4,66.4,66.4,0.0,0.0,33.97000000000001,33.96999999999998,33.97,33.97,33.97000000000001,1.6280579355608324e-14,2.3684757858670005e-15,2.79,2.2,2.51,2.5250000000000004,2.2,0.2196588263648879,-0.19666666666666663
1 -> 2,10.346295000000003,10.346294999999998,10.346295000000001,10.346295000000001,10.346295000000003,2.3498992183808826e-15,5.921189464667501e-16,66.4,66.4,66.4,66.4,66.4,0.0,0.0,33.97000000000001,33.96999999999998,33.97,33.97,33.97000000000001,1.6280579355608324e-14,2.3684757858670005e-15,2.79,2.2,2.51,2.5250000000000004,2.2,0.2196588263648879,-0.19666666666666663
1 -> 2,10.346295000000003,10.346294999999998,10.346295000000001,10.346295000000001,10.346295000000003,2.3498992183808826e-15,5.921189464667501e-16,66.4,66.4,66.4,66.4,66.4,0.0,0.0,33.97000000000001,33.96999999999998,33.97,33.97,33.97000000000001,1.6280579355608324e-14,2.3684757858670005e-15,1.92,0.83,1.3975,1.42,0.83,0.4064710936831794,-0.3633333333333333
1 -> 2,10.346295000000003,10.346294999999998,10.346295000000001,10.346295000000001,10.346295000000003,2.3498992183808826e-15,5.921189464667501e-16,66.4,66.4,66.4,66.4,66.4,0.0,0.0,33.97000000000001,33.96999999999998,33.97,33.97,33.97000000000001,1.6280579355608324e-14,2.3684757858670005e-15,1.92,0.83,1.3975,1.42,0.83,0.4064710936831794,-0.3633333333333333
1 -> 2,10.346295000000003,10.346294999999998,10.346295000000001,10.346295000000001,10.346295000000003,2.3498992183808826e-15,5.921189464667501e-16,66.4,66.4,66.4,66.4,66.4,0.0,0.0,33.97000000000001,33.96999999999998,33.97,33.97,33.97000000000001,1.6280579355608324e-14,2.3684757858670005e-15,0.38,-1.37,-0.4625,-0.43,-1.37,0.6526245091934565,-0.5833333333333334
1 -> 2,10.346295000000003,10.346294999999998,10.346295000000001,10.346295000000001,10.346295000000003,2.3498992183808826e-15,5.921189464667501e-16,66.4,66.4,66.4,66.4,66.4,0.0,0.0,33.97000000000001,33.96999999999998,33.97,33.97,33.97000000000001,1.6280579355608324e-14,2.3684757858670005e-15,0.38,-1.37,-0.4625,-0.43,-1.37,0.6526245091934565,-0.5833333333333334
1 -> 2,10.339895000000004,10.339894999999999,10.339895000000002,10.339895000000002,10.339894999999999,2.808666774861361e-15,0.0,66.4,66.4,66.4,66.4,66.4,0.0,0.0,33.97000000000001,33.96999999999998,33.97,33.97,33.97000000000001,1.6280579355608324e-14,2.3684757858670005e-15,-2.11,-5.42,-3.6574999999999998,-3.55,-5.42,1.2378686319638283,-1.1033333333333333
1 -> 2,10.339895000000004,10.339894999999999,10.339895000000002,10.339895000000002,10.339894999999999,2.808666774861361e-15,0.0,66.4,66.4,66.4,66.4,66.4,0.0,0.0,33.97000000000001,33.96999999999998,33.97,33.97,33.97000000000001,1.6280579355608324e-14,2.3684757858670005e-15,-2.11,-5.42,-3.6574999999999998,-3.55,-5.42,1.2378686319638283,-1.1033333333333333
1 -> 2,10.339895000000004,10.339894999999999,10.339895000000002,10.339895000000002,10.339894999999999,2.808666774861361e-15,0.0,66.4,66.4,66.4,66.4,66.4,0.0,0.0,33.97000000000001,33.96999999999998,33.97,33.97,33.97000000000001,1.6280579355608324e-14,2.3684757858670005e-15,-6.89,-9.75,-8.5725,-8.825,-9.75,1.1063538086887033,-0.9533333333333335
1 -> 2,10.339895000000004,10.339894999999999,10.339895000000002,10.339895000000002,10.339894999999999,2.808666774861361e-15,0.0,66.4,66.4,66.4,66.4,66.4,0.0,0.0,33.97000000000001,33.96999999999998,33.97,33.97,33.97000000000001,1.6280579355608324e-14,2.3684757858670005e-15,-6.89,-9.75,-8.5725,-8.825,-9.75,1.1063538086887033,-0.9533333333333335
1 -> 2,10.339895000000004,10.339894999999999,10.339895000000002,10.339895000000002,10.339894999999999,2.808666774861361e-15,0.0,66.4,66.4,66.4,66.4,66.4,0.0,0.0,33.97000000000001,33.96999999999998,33.97,33.97,33.97000000000001,1.6280579355608324e-14,2.3684757858670005e-15,-4.11,-9.34,-6.955,-7.185,-9.34,1.974797457968791,1.7433333333333332
1 -> 2,10.339895000000004,10.339894999999999,10.339895000000002,10.339895000000002,10.339894999999999,2.808666774861361e-15,0.0,66.4,66.4,66.4,66.4,66.4,0.0,0.0,33.97000000000001,33.96999999999998,33.97,33.97,33.97000000000001,1.6280579355608324e-14,2.3684757858670005e-15,-4.11,-9.34,-6.955,-7.185,-9.34,1.974797457968791,1.7433333333333332
1 -> 2,10.339895000000004,10.339894999999999,10.339895000000002,10.339895000000002,10.339894999999999,2.808666774861361e-15,0.0,66.4,66.4,66.4,66.4,66.4,0.0,0.0,33.97000000000001,33.96999999999998,33.97,33.97,33.97000000000001,1.6280579355608324e-14,2.3684757858670005e-15,2.4,-2.0,0.38499999999999995,0.5700000000000001,-2.0,1.6494468769863428,1.4666666666666666
1 -> 2,10.339895000000004,10.339894999999999,10.339895000000002,10.339895000000002,10.339894999999999,2.808666774861361e-15,0.0,66.4,66.4,66.4,66.4,66.4,0.0,0.0,33.97000000000001,33.96999999999998,33.97,33.97,33.97000000000001,1.6280579355608324e-14,2.3684757858670005e-15,2.4,-2.0,0.38499999999999995,0.5700000000000001,-2.0,1.6494468769863428,1.4666666666666666
1 -> 2,10.329656000000004,10.329655999999993,10.329656,10.329656,10.329656000000004,4.699798436761765e-15,1.1842378929335002e-15,66.4,66.4,66.4,66.4,66.4,0.0,0.0,33.97000000000001,33.96999999999998,33.97,33.97,33.97000000000001,1.6280579355608324e-14,2.3684757858670005e-15,4.21,3.19,3.8175,3.935,3.19,0.3989595844192743,0.34
1 -> 2,10.329656000000004,10.329655999999993,10.329656,10.329656,10.329656000000004,4.699798436761765e-15,1.1842378929335002e-15,66.4,66.4,66.4,66.4,66.4,0.0,0.0,33.97000000000001,33.96999999999998,33.97,33.97,33.97000000000001,1.6280579355608324e-14,2.3684757858670005e-15,4.21,3.19,3.8175,3.935,3.19,0.3989595844192743,0.34
1 -> 2,10.329656000000004,10.329655999999993,10.329656,10.329656,10.329656000000004,4.699798436761765e-15,1.1842378929335002e-15,66.4,66.4,66.4,66.4,66.4,0.0,0.0,33.97000000000001,33.96999999999998,33.97,33.97,33.97000000000001,1.6280579355608324e-14,2.3684757858670005e-15,4.04,2.38,3.2699999999999996,3.33,2.38,0.6269369984296669,-0.5533333333333333
1 -> 2,10.329656000000004,10.329655999999993,10.329656,10.329656,10.329656000000004,4.699798436761765e-15,1.1842378929335002e-15,66.4,66.4,66.4,66.4,66.4,0.0,0.0,33.97000000000001,33.96999999999998,33.97,33.97,33.97000000000001,1.6280579355608324e-14,2.3684757858670005e-15,4.04,2.38,3.2699999999999996,3.33,2.38,0.6269369984296669,-0.5533333333333333
1 -> 2,10.329656000000004,10.329655999999993,10.329656,10.329656,10.329656000000004,4.699798436761765e-15,1.1842378929335002e-15,66.4,66.4,66.4,66.4,66.4,0.0,0.0,33.97000000000001,33.96999999999998,33.97,33.97,33.97000000000001,1.6280579355608324e-14,2.3684757858670005e-15,1.76,0.57,1.1099999999999999,1.055,0.57,0.4461501989240843,-0.39666666666666667
1 -> 2,10.329656000000004,10.329655999999993,10.329656,10.329656,10.329656000000004,4.699798436761765e-15,1.1842378929335002e-15,66.4,66.4,66.4,66.4,66.4,0.0,0.0,33.97000000000001,33.96999999999998,33.97,33.97,33.97000000000001,1.6280579355608324e-14,2.3684757858670005e-15,1.76,0.57,1.1099999999999999,1.055,0.57,0.4461501989240843,-0.39666666666666667
1 -> 2,10.329656000000004,10.329655999999993,10.329656,10.329656,10.329656000000004,4.699798436761765e-15,1.1842378929335002e-15,66.4,66.4,66.4,66.4,66.4,0.0,0.0,33.97000000000001,33.96999999999998,33.97,33.97,33.97000000000001,1.6280579355608324e-14,2.3684757858670005e-15,0.34,-0.45,-0.0325,-0.010000000000000002,-0.45,0.29277764600460876,-0.26333333333333336
1 -> 2,10.329656000000004,10.329655999999993,10.329656,10.329656,10.329656000000004,4.699798436761765e-15,1.1842378929335002e-15,66.4,66.4,66.4,66.4,66.4,0.0,0.0,33.97000000000001,33.96999999999998,33.97,33.97,33.97000000000001,1.6280579355608324e-14,2.3684757858670005e-15,0.34,-0.45,-0.0325,-0.010000000000000002,-0.45,0.29277764600460876,-0.26333333333333336
1 -> 2,10.321976000000003,10.321975999999998,10.321976000000001,10.321976000000003,10.321976000000003,2.3498992183808826e-15,1.7763568394002505e-15,65.0,65.0,65.0,65.0,65.0,0.0,0.0,33.990000000000016,33.98999999999998,33.99,33.99000000000001,33.990000000000016,1.507288760336424e-14,9.473903143468002e-15,-0.88,-2.78,-1.7999999999999998,-1.77,-2.78,0.7117583859709697,-0.6333333333333333
1 -> 2,10.321976000000003,10.321975999999998,10.321976000000001,10.321976000000003,10.321976000000003,2.3498992183808826e-15,1.7763568394002505e-15,65.0,65.0,65.0,65.0,65.0,0.0,0.0,33.990000000000016,33.98999999999998,33.99,33.99000000000001,33.990000000000016,1.507288760336424e-14,9.473903143468002e-15,-0.88,-2.78,-1.7999999999999998,-1.77,-2.78,0.7117583859709697,-0.6333333333333333
1 -> 2,10.321976000000003,10.321975999999998,10.321976000000001,10.321976000000003,10.321976000000003,2.3498992183808826e-15,1.7763568394002505e-15,65.0,65.0,65.0,65.0,65.0,0.0,0.0,33.990000000000016,33.98999999999998,33.99,33.99000000000001,33.990000000000016,1.507288760336424e-14,9.473903143468002e-15,-3.39,-4.33,-3.9225,-3.985,-4.33,0.3533677263135387,-0.3133333333333333
1 -> 2,10.321976000000003,10.321975999999998,10.321976000000001,10.321976000000003,10.321976000000003,2.3498992183808826e-15,1.7763568394002505e-15,65.0,65.0,65.0,65.0,65.0,0.0,0.0,33.990000000000016,33.98999999999998,33.99,33.99000000000001,33.990000000000016,1.507288760336424e-14,9.473903143468002e-15,-3.39,-4.33,-3.9225,-3.985,-4.33,0.3533677263135387,-0.3133333333333333
1 -> 2,10.321976000000003,10.321975999999998,10.321976000000001,10.321976000000003,10.321976000000003,2.3498992183808826e-15,1.7763568394002505e-15,65.0,65.0,65.0,65.0,65.0,0.0,0.0,33.990000000000016,33.98999999999998,33.99,33.99000000000001,33.990000000000016,1.507288760336424e-14,9.473903143468002e-15,-4.52,-5.54,-5.012499999999999,-4.994999999999999,-5.54,0.38401660120364606,-0.34000000000000014
1 -> 2,10.321976000000003,10.321975999999998,10.321976000000001,10.321976000000003,10.321976000000003,2.3498992183808826e-15,1.7763568394002505e-15,65.0,65.0,65.0,65.0,65.0,0.0,0.0,33.990000000000016,33.98999999999998,33.99,33.99000000000001,33.990000000000016,1.507288760336424e-14,9.473903143468002e-15,-4.52,-5.54,-5.012499999999999,-4.994999999999999,-5.54,0.38401660120364606,-0.34000000000000014
1 -> 2,10.321976000000003,10.321975999999998,10.321976000000001,10.321976000000003,10.321976000000003,2.3498992183808826e-15,1.7763568394002505e-15,65.0,65.0,65.0,65.0,65.0,0.0,0.0,33.990000000000016,33.98999999999998,33.99,33.99000000000001,33.990000000000016,1.507288760336424e-14,9.473903143468002e-15,-4.11,-5.73,-5.1225,-5.324999999999999,-5.73,0.6378626419535791,0.54
1 -> 2,10.321976000000003,10.321975999999998,10.321976000000001,10.321976000000003,10.321976000000003,2.3498992183808826e-15,1.7763568394002505e-15,65.0,65.0,65.0,65.0,65.0,0.0,0.0,33.990000000000016,33.98999999999998,33.99,33.99000000000001,33.990000000000016,1.507288760336424e-14,9.473903143468002e-15,-4.11,-5.73,-5.1225,-5.324999999999999,-5.73,0.6378626419535791,0.54
1 -> 2,10.313015000000004,10.313014999999998,10.313015,10.313015000000002,10.313015000000004,2.6645352591003757e-15,5.921189464667501e-16,65.0,65.0,65.0,65.0,65.0,0.0,0.0,33.990000000000016,33.98999999999998,33.99,33.99000000000001,33.990000000000016,1.507288760336424e-14,9.473903143468002e-15,0.76,-2.91,-1.0275,-0.98,-2.91,1.3727049027376568,1.2233333333333334
1 -> 2,10.313015000000004,10.313014999999998,10.313015,10.313015000000002,10.313015000000004,2.6645352591003757e-15,5.921189464667501e-16,65.0,65.0,65.0,65.0,65.0,0.0,0.0,33.990000000000016,33.98999999999998,33.99,33.99000000000001,33.990000000000016,1.507288760336424e-14,9.473903143468002e-15,0.76,-2.91,-1.0275,-0.98,-2.91,1.3727049027376568,1.2233333333333334
1 -> 2,10.313015000000004,10.313014999999998,10.313015,10.313015000000002,10.313015000000004,2.6645352591003757e-15,5.921189464667501e-16,65.0,65.0,65.0,65.0,65.0,0.0,0.0,33.990000000000016,33.98999999999998,33.99,33.99000000000001,33.990000000000016,1.507288760336424e-14,9.473903143468002e-15,2.58,1.65,2.2475,2.38,1.65,0.3601648927921766,0.27333333333333343
1 -> 2,10.313015000000004,10.313014999999998,10.313015,10.313015000000002,10.313015000000004,2.6645352591003757e-15,5.921189464667501e-16,65.0,65.0,65.0,65.0,65.0,0.0,0.0,33.990000000000016,33.98999999999998,33.99,33.99000000000001,33.990000000000016,1.507288760336424e-14,9.473903143468002e-15,2.58,1.65,2.2475,2.38,1.65,0.3601648927921766,0.27333333333333343
1 -> 2,10.313015000000004,10.313014999999998,10.313015,10.313015000000002,10.313015000000004,2.6645352591003757e-15,5.921189464667501e-16,65.0,65.0,65.0,65.0,65.0,0.0,0.0,33.990000000000016,33.98999999999998,33.99,33.99000000000001,33.990000000000016,1.507288760336424e-14,9.473903143468002e-15,1.94,-0.92,0.5275,0.545,-0.92,1.074880807345633,-0.9533333333333333
1 -> 2,10.313015000000004,10.313014999999998,10.313015,10.313015000000002,10.313015000000004,2.6645352591003757e-15,5.921189464667501e-16,65.0,65.0,65.0,65.0,65.0,0.0,0.0,33.990000000000016,33.98999999999998,33.99,33.99000000000001,33.990000000000016,1.507288760336424e-14,9.473903143468002e-15,1.94,-0.92,0.5275,0.545,-0.92,1.074880807345633,-0.9533333333333333
1 -> 2,10.313015000000004,10.313014999999998,10.313015,10.313015000000002,10.313015000000004,2.6645352591003757e-15,5.921189464667501e-16,65.0,65.0,65.0,65.0,65.0,0.0,0.0,33.990000000000016,33.98999999999998,33.99,33.99000000000001,33.990000000000016,1.507288760336424e-14,9.473903143468002e-15,-1.62,-2.28,-2.0175,-2.085,-2.28,0.25023738729454464,-0.2199999999999999
1 -> 2,10.313015000000004,10.313014999999998,10.313015,10.313015000000002,10.313015000000004,2.6645352591003757e-15,5.921189464667501e-16,65.0,65.0,65.0,65.0,65.0,0.0,0.0,33.990000000000016,33.98999999999998,33.99,33.99000000000001,33.990000000000016,1.507288760336424e-14,9.473903143468002e-15,-1.62,-2.28,-2.0175,-2.085,-2.28,0.25023738729454464,-0.2199999999999999
1 -> 2,10.313015000000004,10.313014999999998,10.313015,10.313015000000002,10.313015000000004,2.6645352591003757e-15,5.921189464667501e-16,65.0,65.0,65.0,65.0,65.0,0.0,0.0,33.990000000000016,33.98999999999998,33.99,33.99000000000001,33.990000000000016,1.507288760336424e-14,9.473903143468002e-15,-2.51,-3.96,-3.21,-3.185,-3.96,0.5463972913549262,-0.4833333333333334
1 -> 2,10.313015000000004,10.313014999999998,10.313015,10.313015000000002,10.313015000000004,2.6645352591003757e-15,5.921189464667501e-16,65.0,65.0,65.0,65.0,65.0,0.0,0.0,33.990000000000016,33.98999999999998,33.99,33.99000000000001,33.990000000000016,1.507288760336424e-14,9.473903143468002e-15,-2.51,-3.96,-3.21,-3.185,-3.96,0.5463972913549262,-0.4833333333333334
1 -> 2,10.313015000000004,10.313014999999998,10.313015,10.313015000000002,10.313015000000004,2.6645352591003757e-15,5.921189464667501e-16,65.0,65.0,65.0,65.0,65.0,0.0,0.0,33.990000000000016,33.98999999999998,33.99,33.99000000000001,33.990000000000016,1.507288760336424e-14,9.473903143468002e-15,-4.26,-4.45,-4.352499999999999,-4.35,-4.45,0.07292976072907426,0.016666666666666607
1 -> 2,10.313015000000004,10.313014999999998,10.313015,10.313015000000002,10.313015000000004,2.6645352591003757e-15,5.921189464667501e-16,65.0,65.0,65.0,65.0,65.0,0.0,0.0,33.990000000000016,33.98999999999998,33.99,33.99000000000001,33.990000000000016,1.507288760336424e-14,9.473903143468002e-15,-4.26,-4.45,-4.352499999999999,-4.35,-4.45,0.07292976072907426,0.016666666666666607
1 -> 2,10.313015000000004,10.313014999999998,10.313015,10.313015000000002,10.313015000000004,2.6645352591003757e-15,5.921189464667501e-16,65.0,65.0,65.0,65.0,65.0,0.0,0.0,33.990000000000016,33.98999999999998,33.99,33.99000000000001,33.990000000000016,1.507288760336424e-14,9.473903143468002e-15,-4.23,-5.54,-4.7675,-4.65,-5.54,0.504746223363781,-0.43666666666666654
1 -> 2,10.313015000000004,10.313014999999998,10.313015,10.313015000000002,10.313015000000004,2.6645352591003757e-15,5.921189464667501e-16,65.0,65.0,65.0,65.0,65.0,0.0,0.0,33.990000000000016,33.98999999999998,33.99,33.99000000000001,33.990000000000016,1.507288760336424e-14,9.473903143468002e-15,-4.23,-5.54,-4.7675,-4.65,-5.54,0.504746223363781,-0.43666666666666654
1 -> 2,10.313015000000004,10.313014999999998,10.313015,10.313015000000002,10.313015000000004,2.6645352591003757e-15,5.921189464667501e-16,65.0,65.0,65.0,65.0,65.0,0.0,0.0,33.990000000000016,33.98999999999998,33.99,33.99000000000001,33.990000000000016,1.507288760336424e-14,9.473903143468002e-15,-6.26,-7.03,-6.725,-6.805,-7.03,0.2839454172900139,-0.17666666666666675
1 -> 2,10.313015000000004,10.313014999999998,10.313015,10.313015000000002,10.313015000000004,2.6645352591003757e-15,5.921189464667501e-16,65.0,65.0,65.0,65.0,65.0,0.0,0.0,33.990000000000016,33.98999999999998,33.99,33.99000000000001,33.990000000000016,1.507288760336424e-14,9.473903143468002e-15,-6.26,-7.03,-6.725,-6.805,-7.03,0.2839454172900139,-0.17666666666666675
1 -> 2,10.334776000000003,10.334775999999994,10.334776,10.334776,10.334776000000003,4.070144838902081e-15,5.921189464667501e-16,65.0,65.0,65.0,65.0,65.0,0.0,0.0,33.990000000000016,33.98999999999998,33.99,33.99000000000001,33.990000000000016,1.507288760336424e-14,9.473903143468002e-15,-2.42,-6.08,-4.3125,-4.375,-6.08,1.3711195243303917,1.22
1 -> 2,10.334776000000003,10.334775999999994,10.334776,10.334776,10.334776000000003,4.070144838902081e-15,5.921189464667501e-16,65.0,65.0,65.0,65.0,65.0,0.0,0.0,33.990000000000016,33.98999999999998,33.99,33.99000000000001,33.990000000000016,1.507288760336424e-14,9.473903143468002e-15,-2.42,-6.08,-4.3125,-4.375,-6.08,1.3711195243303917,1.22
1 -> 2,10.334776000000003,10.334775999999994,10.334776,10.334776,10.334776000000003,4.070144838902081e-15,5.921189464667501e-16,65.0,65.0,65.0,65.0,65.0,0.0,0.0,33.990000000000016,33.98999999999998,33.99,33.99000000000001,33.990000000000016,1.507288760336424e-14,9.473903143468002e-15,1.44,-1.17,0.2525,0.37,-1.17,0.9808765212808388,0.87
1 -> 2,10.334776000000003,10.334775999999994,10.334776,10.334776,10.334776000000003,4.070144838902081e-15,5.921189464667501e-16,65.0,65.0,65.0,65.0,65.0,0.0,0.0,33.990000000000016,33.98999999999998,33.99,33.99000000000001,33.990000000000016,1.507288760336424e-14,9.473903143468002e-15,1.44,-1.17,0.2525,0.37,-1.17,0.9808765212808388,0.87
1 -> 2,10.334776000000003,10.334775999999994,10.334776,10.334776,10.334776000000003,4.070144838902081e-15,5.921189464667501e-16,65.0,65.0,65.0,65.0,65.0,0.0,0.0,33.990000000000016,33.98999999999998,33.99,33.99000000000001,33.990000000000016,1.507288760336424e-14,9.473903143468002e-15,1.75,0.68,1.3599999999999999,1.505,0.68,0.42796027853061314,-0.35666666666666663
1 -> 2,10.334776000000003,10.334775999999994,10.334776,10.334776,10.334776000000003,4.070144838902081e-15,5.921189464667501e-16,65.0,65.0,65.0,65.0,65.0,0.0,0.0,33.990000000000016,33.98999999999998,33.99,33.99000000000001,33.990000000000016,1.507288760336424e-14,9.473903143468002e-15,1.75,0.68,1.3599999999999999,1.505,0.68,0.42796027853061314,-0.35666666666666663
1 -> 2,10.334776000000003,10.334775999999994,10.334776,10.334776,10.334776000000003,4.070144838902081e-15,5.921189464667501e-16,65.0,65.0,65.0,65.0,65.0,0.0,0.0,33.990000000000016,33.98999999999998,33.99,33.99000000000001,33.990000000000016,1.507288760336424e-14,9.473903143468002e-15,-0.04,-1.32,-0.78,-0.8800000000000001,-1.32,0.48887626246321264,-0.4266666666666667
1 -> 2,10.334776000000003,10.334775999999994,10.334776,10.334776,10.334776000000003,4.070144838902081e-15,5.921189464667501e-16,65.0,65.0,65.0,65.0,65.0,0.0,0.0,33.990000000000016,33.98999999999998,33.99,33.99000000000001,33.990000000000016,1.507288760336424e-14,9.473903143468002e-15,-0.04,-1.32,-0.78,-0.8800000000000001,-1.32,0.48887626246321264,-0.4266666666666667
1 -> 2,10.411577000000003,10.411576999999998,10.411577000000001,10.411577000000001,10.411577000000003,2.175583928816829e-15,1.1842378929335002e-15,64.14,64.14,64.14,64.14,64.14,0.0,0.0,33.990000000000016,33.98999999999998,33.99,33.99000000000001,33.990000000000016,1.507288760336424e-14,9.473903143468002e-15,-1.41,-2.24,-1.725,-1.625,-2.24,0.32237400639629754,-0.2766666666666668
1 -> 2,10.411577000000003,10.411576999999998,10.411577000000001,10.411577000000001,10.411577000000003,2.175583928816829e-15,1.1842378929335002e-15,64.14,64.14,64.14,64.14,64.14,0.0,0.0,33.990000000000016,33.98999999999998,33.99,33.99000000000001,33.990000000000016,1.507288760336424e-14,9.473903143468002e-15,-1.41,-2.24,-1.725,-1.625,-2.24,0.32237400639629754,-0.2766666666666668
1 -> 2,10.411577000000003,10.411576999999998,10.411577000000001,10.411577000000001,10.411577000000003,2.175583928816829e-15,1.1842378929335002e-15,64.14,64.14,64.14,64.14,64.14,0.0,0.0,33.990000000000016,33.98999999999998,33.99,33.99000000000001,33.990000000000016,1.507288760336424e-14,9.473903143468002e-15,-2.98,-5.56,-4.31,-4.35,-5.56,0.9692522891383851,-0.8599999999999999
1 -> 2,10.411577000000003,10.411576999999998,10.411577000000001,10.411577000000001,10.411577000000003,2.175583928816829e-15,1.1842378929335002e-15,64.14,64.14,64.14,64.14,64.14,0.0,0.0,33.990000000000016,33.98999999999998,33.99,33.99000000000001,33.990000000000016,1.507288760336424e-14,9.473903143468002e-15,-2.98,-5.56,-4.31,-4.35,-5.56,0.9692522891383851,-0.8599999999999999
1 -> 2,10.411577000000003,10.411576999999998,10.411577000000001,10.411577000000001,10.411577000000003,2.175583928816829e-15,1.1842378929335002e-15,64.14,64.14,64.14,64.14,64.14,0.0,0.0,33.990000000000016,33.98999999999998,33.99,33.99000000000001,33.990000000000016,1.507288760336424e-14,9.473903143468002e-15,-5.72,-6.07,-5.922499999999999,-5.95,-6.07,0.12987975207860558,0.09000000000000015
1 -> 2,10.411577000000003,10.411576999999998,10.411577000000001,10.411577000000001,10.411577000000003,2.175583928816829e-15,1.1842378929335002e-15,64.14,64.14,64.14,64.14,64.14,0.0,0.0,33.990000000000016,33.98999999999998,33.99,33.99000000000001,33.990000000000016,1.507288760336424e-14,9.473903143468002e-15,-5.72,-6.07,-5.922499999999999,-5.95,-6.07,0.12987975207860558,0.09000000000000015
1 -> 2,10.411577000000003,10.411576999999998,10.411577000000001,10.411577000000001,10.411577000000003,2.175583928816829e-15,1.1842378929335002e-15,64.14,64.14,64.14,64.14,64.14,0.0,0.0,33.990000000000016,33.98999999999998,33.99,33.99000000000001,33.990000000000016,1.507288760336424e-14,9.473903143468002e-15,-5.75,-7.76,-6.635,-6.515000000000001,-7.76,0.7655226972467896,-0.6699999999999999
1 -> 2,10.411577000000003,10.411576999999998,10.411577000000001,10.411577000000001,10.411577000000003,2.175583928816829e-15,1.1842378929335002e-15,64.14,64.14,64.14,64.14,64.14,0.0,0.0,33.990000000000016,33.98999999999998,33.99,33.99000000000001,33.990000000000016,1.507288760336424e-14,9.473903143468002e-15,-5.75,-7.76,-6.635,-6.515000000000001,-7.76,0.7655226972467896,-0.6699999999999999
1 -> 2,10.511418000000004,10.511417999999999,10.511418000000003,10.511418000000003,10.511418000000004,2.3498992183808826e-15,-5.921189464667501e-16,64.14,64.14,64.14,64.14,64.14,0.0,0.0,33.990000000000016,33.98999999999998,33.99,33.99000000000001,33.990000000000016,1.507288760336424e-14,9.473903143468002e-15,-8.55,-9.1,-8.855,-8.885,-9.1,0.2218670773233374,-0.06333333333333317
1 -> 2,10.511418000000004,10.511417999999999,10.511418000000003,10.511418000000003,10.511418000000004,2.3498992183808826e-15,-5.921189464667501e-16,64.14,64.14,64.14,64.14,64.14,0.0,0.0,33.990000000000016,33.98999999999998,33.99,33.99000000000001,33.990000000000016,1.507288760336424e-14,9.473903143468002e-15,-8.55,-9.1,-8.855,-8.885,-9.1,0.2218670773233374,-0.06333333333333317
1 -> 2,10.511418000000004,10.511417999999999,10.511418000000003,10.511418000000003,10.511418000000004,2.3498992183808826e-15,-5.921189464667501e-16,64.14,64.14,64.14,64.14,64.14,0.0,0.0,33.990000000000016,33.98999999999998,33.99,33.99000000000001,33.990000000000016,1.507288760336424e-14,9.473903143468002e-15,-3.59,-7.99,-5.9475,-6.105,-7.99,1.6499450748434024,1.4666666666666668
1 -> 2,10.511418000000004,10.511417999999999,10.511418000000003,10.511418000000003,10.511418000000004,2.3498992183808826e-15,-5.921189464667501e-16,64.14,64.14,64.14,64.14,64.14,0.0,0.0,33.990000000000016,33.98999999999998,33.99,33.99000000000001,33.990000000000016,1.507288760336424e-14,9.473903143468002e-15,-3.59,-7.99,-5.9475,-6.105,-7.99,1.6499450748434024,1.4666666666666668
1 -> 2,10.511418000000004,10.511417999999999,10.511418000000003,10.511418000000003,10.511418000000004,2.3498992183808826e-15,-5.921189464667501e-16,64.14,64.14,64.14,64.14,64.14,0.0,0.0,33.990000000000016,33.98999999999998,33.99,33.99000000000001,33.990000000000016,1.507288760336424e-14,9.473903143468002e-15,2.21,-1.73,0.4475,0.655,-1.73,1.4870503522073488,1.3133333333333332
1 -> 2,10.511418000000004,10.511417999999999,10.511418000000003,10.511418000000003,10.511418000000004,2.3498992183808826e-15,-5.921189464667501e-16,64.14,64.14,64.14,64.14,64.14,0.0,0.0,33.990000000000016,33.98999999999998,33.99,33.99000000000001,33.990000000000016,1.507288760336424e-14,9.473903143468002e-15,2.21,-1.73,0.4475,0.655,-1.73,1.4870503522073488,1.3133333333333332
1 -> 2,10.511418000000004,10.511417999999999,10.511418000000003,10.511418000000003,10.511418000000004,2.3498992183808826e-15,-5.921189464667501e-16,64.14,64.14,64.14,64.14,64.14,0.0,0.0,33.990000000000016,33.98999999999998,33.99,33.99000000000001,33.990000000000016,1.507288760336424e-14,9.473903143468002e-15,3.05,2.67,2.8949999999999996,2.9299999999999997,2.67,0.14326548781894402,0.12666666666666662
1 -> 2,10.511418000000004,10.511417999999999,10.511418000000003,10.511418000000003,10.511418000000004,2.3498992183808826e-15,-5.921189464667501e-16,64.14,64.14,64.14,64.14,64.14,0.0,0.0,33.990000000000016,33.98999999999998,33.99,33.99000000000001,33.990000000000016,1.507288760336424e-14,9.473903143468002e-15,3.05,2.67,2.8949999999999996,2.9299999999999997,2.67,0.14326548781894402,0.12666666666666662
1 -> 2,10.609980000000004,10.60998,10.609980000000002,10.609980000000004,10.609980000000004,1.538370149106851e-15,5.921189464667501e-16,64.14,64.14,64.14,64.14,64.14,0.0,0.0,33.990000000000016,33.98999999999998,33.99,33.99000000000001,33.990000000000016,1.507288760336424e-14,9.473903143468002e-15,3.07,2.46,2.825,2.885,2.46,0.23584952830141512,-0.20333333333333328
1 -> 2,10.609980000000004,10.60998,10.609980000000002,10.609980000000004,10.609980000000004,1.538370149106851e-15,5.921189464667501e-16,64.14,64.14,64.14,64.14,64.14,0.0,0.0,33.990000000000016,33.98999999999998,33.99,33.99000000000001,33.990000000000016,1.507288760336424e-14,9.473903143468002e-15,3.07,2.46,2.825,2.885,2.46,0.23584952830141512,-0.20333333333333328
1 -> 2,10.609980000000004,10.60998,10.609980000000002,10.609980000000004,10.609980000000004,1.538370149106851e-15,5.921189464667501e-16,64.14,64.14,64.14,64.14,64.14,0.0,0.0,33.990000000000016,33.98999999999998,33.99,33.99000000000001,33.990000000000016,1.507288760336424e-14,9.473903143468002e-15,2.09,1.14,1.5874999999999997,1.56,1.14,0.3554838252297845,-0.31666666666666665
1 -> 2,10.609980000000004,10.60998,10.609980000000002,10.609980000000004,10.609980000000004,1.538370149106851e-15,5.921189464667501e-16,64.14,64.14,64.14,64.14,64.14,0.0,0.0,33.990000000000016,33.98999999999998,33.99,33.99000000000001,33.990000000000016,1.507288760336424e-14,9.473903143468002e-15,2.09,1.14,1.5874999999999997,1.56,1.14,0.3554838252297845,-0.31666666666666665
1 -> 2,10.609980000000004,10.60998,10.609980000000002,10.609980000000004,10.609980000000004,1.538370149106851e-15,5.921189464667501e-16,64.14,64.14,64.14,64.14,64.14,0.0,0.0,33.990000000000016,33.98999999999998,33.99,33.99000000000001,33.990000000000016,1.507288760336424e-14,9.473903143468002e-15,0.92,0.5,0.6849999999999999,0.6599999999999999,0.5,0.1585086748414736,-0.14
1 -> 2,10.609980000000004,10.60998,10.609980000000002,10.609980000000004,10.609980000000004,1.538370149106851e-15,5.921189464667501e-16,64.14,64.14,64.14,64.14,64.14,0.0,0.0,33.990000000000016,33.98999999999998,33.99,33.99000000000001,33.990000000000016,1.507288760336424e-14,9.473903143468002e-15,0.92,0.5,0.6849999999999999,0.6599999999999999,0.5,0.1585086748414736,-0.14
1 -> 2,10.609980000000004,10.60998,10.609980000000002,10.609980000000004,10.609980000000004,1.538370149106851e-15,5.921189464667501e-16,64.14,64.14,64.14,64.14,64.14,0.0,0.0,33.990000000000016,33.98999999999998,33.99,33.99000000000001,33.990000000000016,1.507288760336424e-14,9.473903143468002e-15,0.45,-0.27,0.17250000000000001,0.255,-0.27,0.2777026287236043,-0.24000000000000002
1 -> 2,10.609980000000004,10.60998,10.609980000000002,10.609980000000004,10.609980000000004,1.538370149106851e-15,5.921189464667501e-16,64.14,64.14,64.14,64.14,64.14,0.0,0.0,33.990000000000016,33.98999999999998,33.99,33.99000000000001,33.990000000000016,1.507288760336424e-14,9.473903143468002e-15,0.45,-0.27,0.17250000000000001,0.255,-0.27,0.2777026287236043,-0.24000000000000002
1 -> 2,10.721342000000003,10.721341999999996,10.721342000000002,10.721342000000002,10.721342000000003,3.076740298213702e-15,1.1842378929335002e-15,64.14,64.14,64.14,64.14,64.14,0.0,0.0,33.990000000000016,33.98999999999998,33.99,33.99000000000001,33.990000000000016,1.507288760336424e-14,9.473903143468002e-15,-0.96,-3.85,-2.4025,-2.4,-3.85,1.0859183901196259,-0.9633333333333334
1 -> 2,10.721342000000003,10.721341999999996,10.721342000000002,10.721342000000002,10.721342000000003,3.076740298213702e-15,1.1842378929335002e-15,64.14,64.14,64.14,64.14,64.14,0.0,0.0,33.990000000000016,33.98999999999998,33.99,33.99000000000001,33.990000000000016,1.507288760336424e-14,9.473903143468002e-15,-0.96,-3.85,-2.4025,-2.4,-3.85,1.0859183901196259,-0.9633333333333334
1 -> 2,10.721342000000003,10.721341999999996,10.721342000000002,10.721342000000002,10.721342000000003,3.076740298213702e-15,1.1842378929335002e-15,64.14,64.14,64.14,64.14,64.14,0.0,0.0,33.990000000000016,33.98999999999998,33.99,33.99000000000001,33.990000000000016,1.507288760336424e-14,9.473903143468002e-15,-2.89,-4.48,-3.9375,-4.1899999999999995,-4.48,0.6391938281929824,0.5133333333333332
1 -> 2,10.721342000000003,10.721341999999996,10.721342000000002,10.721342000000002,10.721342000000003,3.076740298213702e-15,1.1842378929335002e-15,64.14,64.14,64.14,64.14,64.14,0.0,0.0,33.990000000000016,33.98999999999998,33.99,33.99000000000001,33.990000000000016,1.507288760336424e-14,9.473903143468002e-15,-2.89,-4.48,-3.9375,-4.1899999999999995,-4.48,0.6391938281929824,0.5133333333333332
1 -> 2,10.721342000000003,10.721341999999996,10.721342000000002,10.721342000000002,10.721342000000003,3.076740298213702e-15,1.1842378929335002e-15,64.14,64.14,64.14,64.14,64.14,0.0,0.0,33.990000000000016,33.98999999999998,33.99,33.99000000000001,33.990000000000016,1.507288760336424e-14,9.473903143468002e-15,3.3,-1.47,0.9349999999999999,0.9550000000000001,-1.47,1.782308895786586,1.5899999999999999
1 -> 2,10.721342000000003,10.721341999999996,10.721342000000002,10.721342000000002,10.721342000000003,3.076740298213702e-15,1.1842378929335002e-15,64.14,64.14,64.14,64.14,64.14,0.0,0.0,33.990000000000016,33.98999999999998,33.99,33.99000000000001,33.990000000000016,1.507288760336424e-14,9.473903143468002e-15,3.3,-1.47,0.9349999999999999,0.9550000000000001,-1.47,1.782308895786586,1.5899999999999999
1 -> 2,10.721342000000003,10.721341999999996,10.721342000000002,10.721342000000002,10.721342000000003,3.076740298213702e-15,1.1842378929335002e-15,64.14,64.14,64.14,64.14,64.14,0.0,0.0,33.990000000000016,33.98999999999998,33.99,33.99000000000001,33.990000000000016,1.507288760336424e-14,9.473903143468002e-15,6.8,4.65,5.9125000000000005,6.1,4.65,0.8254809204336583,0.7166666666666665
1 -> 2,10.721342000000003,10.721341999999996,10.721342000000002,10.721342000000002,10.721342000000003,3.076740298213702e-15,1.1842378929335002e-15,64.14,64.14,64.14,64.14,64.14,0.0,0.0,33.990000000000016,33.98999999999998,33.99,33.99000000000001,33.990000000000016,1.507288760336424e-14,9.473903143468002e-15,6.8,4.65,5.9125000000000005,6.1,4.65,0.8254809204336583,0.7166666666666665
1 -> 2,10.823744000000003,10.823743999999994,10.823744,10.823744000000001,10.823744000000003,3.76822190084106e-15,1.1842378929335002e-15,63.62,63.62,63.62,63.62,63.62,0.0,0.0,33.990000000000016,33.98999999999998,33.99,33.99000000000001,33.990000000000016,1.507288760336424e-14,9.473903143468002e-15,6.73,5.19,6.0075,6.055,5.19,0.5825107295149163,-0.5133333333333333
1 -> 2,10.823744000000003,10.823743999999994,10.823744,10.823744000000001,10.823744000000003,3.76822190084106e-15,1.1842378929335002e-15,63.62,63.62,63.62,63.62,63.62,0.0,0.0,33.990000000000016,33.98999999999998,33.99,33.99000000000001,33.990000000000016,1.507288760336424e-14,9.473903143468002e-15,6.73,5.19,6.0075,6.055,5.19,0.5825107295149163,-0.5133333333333333
1 -> 2,10.823744000000003,10.823743999999994,10.823744,10.823744000000001,10.823744000000003,3.76822190084106e-15,1.1842378929335002e-15,63.62,63.62,63.62,63.62,63.62,0.0,0.0,33.990000000000016,33.98999999999998,33.99,33.99000000000001,33.990000000000016,1.507288760336424e-14,9.473903143468002e-15,4.67,3.43,4.0425,4.035,3.43,0.45963980462966864,-0.4133333333333333
1 -> 2,10.823744000000003,10.823743999999994,10.823744,10.823744000000001,10.823744000000003,3.76822190084106e-15,1.1842378929335002e-15,63.62,63.62,63.62,63.62,63.62,0.0,0.0,33.990000000000016,33.98999999999998,33.99,33.99000000000001,33.990000000000016,1.507288760336424e-14,9.473903143468002e-15,4.67,3.43,4.0425,4.035,3.43,0.45963980462966864,-0.4133333333333333
1 -> 2,10.823744000000003,10.823743999999994,10.823744,10.823744000000001,10.823744000000003,3.76822190084106e-15,1.1842378929335002e-15,63.62,63.62,63.62,63.62,63.62,0.0,0.0,33.990000000000016,33.98999999999998,33.99,33.99000000000001,33.990000000000016,1.507288760336424e-14,9.473903143468002e-15,3.03,2.23,2.5825,2.535,2.23,0.3022726418318402,-0.2666666666666666
1 -> 2,10.823744000000003,10.823743999999994,10.823744,10.823744000000001,10.823744000000003,3.76822190084106e-15,1.1842378929335002e-15,63.62,63.62,63.62,63.62,63.62,0.0,0.0,33.990000000000016,33.98999999999998,33.99,33.99000000000001,33.990000000000016,1.507288760336424e-14,9.473903143468002e-15,3.03,2.23,2.5825,2.535,2.23,0.3022726418318402,-0.2666666666666666
1 -> 2,10.823744000000003,10.823743999999994,10.823744,10.823744000000001,10.823744000000003,3.76822190084106e-15,1.1842378929335002e-15,63.62,63.62,63.62,63.62,63.62,0.0,0.0,33.990000000000016,33.98999999999998,33.99,33.99000000000001,33.990000000000016,1.507288760336424e-14,9.473903143468002e-15,2.11,1.79,1.9649999999999999,1.98,1.79,0.11947803145348514,-0.10666666666666662
1 -> 2,10.823744000000003,10.823743999999994,10.823744,10.823744000000001,10.823744000000003,3.76822190084106e-15,1.1842378929335002e-15,63.62,63.62,63.62,63.62,63.62,0.0,0.0,33.990000000000016,33.98999999999998,33.99,33.99000000000001,33.990000000000016,1.507288760336424e-14,9.473903143468002e-15,2.11,1.79,1.9649999999999999,1.98,1.79,0.11947803145348514,-0.10666666666666662
1 -> 2,10.895425000000003,10.895424999999998,10.895425,10.895425000000001,10.895425000000003,2.6645352591003757e-15,5.921189464667501e-16,63.62,63.62,63.62,63.62,63.62,0.0,0.0,33.990000000000016,33.98999999999998,33.99,33.99000000000001,33.990000000000016,1.507288760336424e-14,9.473903143468002e-15,1.57,-1.11,0.4575000000000001,0.685,-1.11,1.019739550081294,-0.8933333333333334
1 -> 2,10.895425000000003,10.895424999999998,10.895425,10.895425000000001,10.895425000000003,2.6645352591003757e-15,5.921189464667501e-16,63.62,63.62,63.62,63.62,63.62,0.0,0.0,33.990000000000016,33.98999999999998,33.99,33.99000000000001,33.990000000000016,1.507288760336424e-14,9.473903143468002e-15,1.57,-1.11,0.4575000000000001,0.685,-1.11,1.019739550081294,-0.8933333333333334
1 -> 2,10.895425000000003,10.895424999999998,10.895425,10.895425000000001,10.895425000000003,2.6645352591003757e-15,5.921189464667501e-16,63.62,63.62,63.62,63.62,63.62,0.0,0.0,33.990000000000016,33.98999999999998,33.99,33.99000000000001,33.990000000000016,1.507288760336424e-14,9.473903143468002e-15,-2.97,-8.47,-5.885,-6.050000000000001,-8.47,2.070911635005222,-1.8333333333333337
1 -> 2,10.895425000000003,10.895424999999998,10.895425,10.895425000000001,10.895425000000003,2.6645352591003757e-15,5.921189464667501e-16,63.62,63.62,63.62,63.62,63.62,0.0,0.0,33.990000000000016,33.98999999999998,33.99,33.99000000000001,33.990000000000016,1.507288760336424e-14,9.473903143468002e-15,-2.97,-8.47,-5.885,-6.050000000000001,-8.47,2.070911635005222,-1.8333333333333337
1 -> 2,10.895425000000003,10.895424999999998,10.895425,10.895425000000001,10.895425000000003,2.6645352591003757e-15,5.921189464667501e-16,63.62,63.62,63.62,63.62,63.62,0.0,0.0,33.990000000000016,33.98999999999998,33.99,33.99000000000001,33.990000000000016,1.507288760336424e-14,9.473903143468002e-15,-7.38,-9.17,-8.525,-8.774999999999999,-9.17,0.7205032963144581,0.5966666666666667
1 -> 2,10.895425000000003,10.895424999999998,10.895425,10.895425000000001,10.895425000000003,2.6645352591003757e-15,5.921189464667501e-16,63.62,63.62,63.62,63.62,63.62,0.0,0.0,33.990000000000016,33.98999999999998,33.99,33.99000000000001,33.990000000000016,1.507288760336424e-14,9.473903143468002e-15,-7.38,-9.17,-8.525,-8.774999999999999,-9.17,0.7205032963144581,0.5966666666666667
1 -> 2,10.895425000000003,10.895424999999998,10.895425,10.895425000000001,10.895425000000003,2.6645352591003757e-15,5.921189464667501e-16,63.62,63.62,63.62,63.62,63.62,0.0,0.0,33.990000000000016,33.98999999999998,33.99,33.99000000000001,33.990000000000016,1.507288760336424e-14,9.473903143468002e-15,-1.81,-6.09,-3.955,-3.96,-6.09,1.5965666287380553,1.4266666666666665
1 -> 2,10.895425000000003,10.895424999999998,10.895425,10.895425000000001,10.895425000000003,2.6645352591003757e-15,5.921189464667501e-16,63.62,63.62,63.62,63.62,63.62,0.0,0.0,33.990000000000016,33.98999999999998,33.99,33.99000000000001,33.990000000000016,1.507288760336424e-14,9.473903143468002e-15,-1.81,-6.09,-3.955,-3.96,-6.09,1.5965666287380553,1.4266666666666665
1 -> 2,10.927425000000003,10.927424999999994,10.927425,10.927425000000003,10.927425000000003,3.76822190084106e-15,2.3684757858670005e-15,63.62,63.62,63.62,63.62,63.62,0.0,0.0,33.990000000000016,33.98999999999998,33.99,33.99000000000001,33.990000000000016,1.507288760336424e-14,9.473903143468002e-15,1.99,-0.5,0.8875,1.03,-0.5,0.9399567809213357,0.83
1 -> 2,10.927425000000003,10.927424999999994,10.927425,10.927425000000003,10.927425000000003,3.76822190084106e-15,2.3684757858670005e-15,63.62,63.62,63.62,63.62,63.62,0.0,0.0,33.990000000000016,33.98999999999998,33.99,33.99000000000001,33.990000000000016,1.507288760336424e-14,9.473903143468002e-15,1.99,-0.5,0.8875,1.03,-0.5,0.9399567809213357,0.83
1 -> 2,10.927425000000003,10.927424999999994,10.927425,10.927425000000003,10.927425000000003,3.76822190084106e-15,2.3684757858670005e-15,63.62,63.62,63.62,63.62,63.62,0.0,0.0,33.990000000000016,33.98999999999998,33.99,33.99000000000001,33.990000000000016,1.507288760336424e-14,9.473903143468002e-15,2.22,1.66,2.0125,2.085,1.66,0.2235369097039682,-0.18666666666666676
1 -> 2,10.927425000000003,10.927424999999994,10.927425,10.927425000000003,10.927425000000003,3.76822190084106e-15,2.3684757858670005e-15,63.62,63.62,63.62,63.62,63.62,0.0,0.0,33.990000000000016,33.98999999999998,33.99,33.99000000000001,33.990000000000016,1.507288760336424e-14,9.473903143468002e-15,2.22,1.66,2.0125,2.085,1.66,0.2235369097039682,-0.18666666666666676
1 -> 2,10.927425000000003,10.927424999999994,10.927425,10.927425000000003,10.927425000000003,3.76822190084106e-15,2.3684757858670005e-15,63.62,63.62,63.62,63.62,63.62,0.0,0.0,33.990000000000016,33.98999999999998,33.99,33.99000000000001,33.990000000000016,1.507288760336424e-14,9.473903143468002e-15,1.32,0.48,0.8875000000000001,0.875,0.48,0.31219985586159393,-0.28
1 -> 2,10.927425000000003,10.927424999999994,10.927425,10.927425000000003,10.927425000000003,3.76822190084106e-15,2.3684757858670005e-15,63.62,63.62,63.62,63.62,63.62,0.0,0.0,33.990000000000016,33.98999999999998,33.99,33.99000000000001,33.990000000000016,1.507288760336424e-14,9.473903143468002e-15,1.32,0.48,0.8875000000000001,0.875,0.48,0.31219985586159393,-0.28
1 -> 2,10.927425000000003,10.927424999999994,10.927425,10.927425000000003,10.927425000000003,3.76822190084106e-15,2.3684757858670005e-15,63.62,63.62,63.62,63.62,63.62,0.0,0.0,33.990000000000016,33.98999999999998,33.99,33.99000000000001,33.990000000000016,1.507288760336424e-14,9.473903143468002e-15,0.16,-1.04,-0.4425,-0.445,-1.04,0.4506869756272085,-0.4000000000000001
1 -> 2,10.927425000000003,10.927424999999994,10.927425,10.927425000000003,10.927425000000003,3.76822190084106e-15,2.3684757858670005e-15,63.62,63.62,63.62,63.62,63.62,0.0,0.0,33.990000000000016,33.98999999999998,33.99,33.99000000000001,33.990000000000016,1.507288760336424e-14,9.473903143468002e-15,0.16,-1.04,-0.4425,-0.445,-1.04,0.4506869756272085,-0.4000000000000001
1 -> 2,10.932546000000004,10.932545999999995,10.932545999999999,10.932546,10.932546000000004,4.259554063523935e-15,5.921189464667501e-16,63.62,63.62,63.62,63.62,63.62,0.0,0.0,33.990000000000016,33.98999999999998,33.99,33.99000000000001,33.990000000000016,1.507288760336424e-14,9.473903143468002e-15,-1.3,-1.77,-1.5150000000000001,-1.495,-1.77,0.17182840277439584,-0.15666666666666665
1 -> 2,10.932546000000004,10.932545999999995,10.932545999999999,10.932546,10.932546000000004,4.259554063523935e-15,5.921189464667501e-16,63.62,63.62,63.62,63.62,63.62,0.0,0.0,33.990000000000016,33.98999999999998,33.99,33.99000000000001,33.990000000000016,1.507288760336424e-14,9.473903143468002e-15,-1.3,-1.77,-1.5150000000000001,-1.495,-1.77,0.17182840277439584,-0.15666666666666665
1 -> 2,10.932546000000004,10.932545999999995,10.932545999999999,10.932546,10.932546000000004,4.259554063523935e-15,5.921189464667501e-16,63.62,63.62,63.62,63.62,63.62,0.0,0.0,33.990000000000016,33.98999999999998,33.99,33.99000000000001,33.990000000000016,1.507288760336424e-14,9.473903143468002e-15,-2.19,-4.12,-3.1500000000000004,-3.145,-4.12,0.7246723397508699,-0.6433333333333334
1 -> 2,10.932546000000004,10.932545999999995,10.932545999999999,10.932546,10.932546000000004,4.259554063523935e-15,5.921189464667501e-16,63.62,63.62,63.62,63.62,63.62,0.0,0.0,33.990000000000016,33.98999999999998,33.99,33.99000000000001,33.990000000000016,1.507288760336424e-14,9.473903143468002e-15,-2.19,-4.12,-3.1500000000000004,-3.145,-4.12,0.7246723397508699,-0.6433333333333334
1 -> 2,10.932546000000004,10.932545999999995,10.932545999999999,10.932546,10.932546000000004,4.259554063523935e-15,5.921189464667501e-16,63.62,63.62,63.62,63.62,63.62,0.0,0.0,33.990000000000016,33.98999999999998,33.99,33.99000000000001,33.990000000000016,1.507288760336424e-14,9.473903143468002e-15,-4.64,-5.9,-5.272500000000001,-5.275,-5.9,0.4684749192859744,-0.4200000000000002
1 -> 2,10.932546000000004,10.932545999999995,10.932545999999999,10.932546,10.932546000000004,4.259554063523935e-15,5.921189464667501e-16,63.62,63.62,63.62,63.62,63.62,0.0,0.0,33.990000000000016,33.98999999999998,33.99,33.99000000000001,33.990000000000016,1.507288760336424e-14,9.473903143468002e-15,-4.64,-5.9,-5.272500000000001,-5.275,-5.9,0.4684749192859744,-0.4200000000000002
1 -> 2,10.932546000000004,10.932545999999995,10.932545999999999,10.932546,10.932546000000004,4.259554063523935e-15,5.921189464667501e-16,63.62,63.62,63.62,63.62,63.62,0.0,0.0,33.990000000000016,33.98999999999998,33.99,33.99000000000001,33.990000000000016,1.507288760336424e-14,9.473903143468002e-15,-5.14,-6.4,-5.9725,-6.175,-6.4,0.4939319285083727,0.37666666666666665
1 -> 2,10.932546000000004,10.932545999999995,10.932545999999999,10.932546,10.932546000000004,4.259554063523935e-15,5.921189464667501e-16,63.62,63.62,63.62,63.62,63.62,0.0,0.0,33.990000000000016,33.98999999999998,33.99,33.99000000000001,33.990000000000016,1.507288760336424e-14,9.473903143468002e-15,-5.14,-6.4,-5.9725,-6.175,-6.4,0.4939319285083727,0.37666666666666665
1 -> 2,10.903105000000004,10.903104999999995,10.903105,10.903105,10.903105000000004,3.76822190084106e-15,1.1842378929335002e-15,63.78,63.78,63.78,63.78,63.78,0.0,0.0,33.990000000000016,33.98999999999998,33.99,33.99000000000001,33.990000000000016,1.507288760336424e-14,9.473903143468002e-15,3.14,-3.57,-0.275,-0.335,-3.57,2.512016122559726,2.236666666666667
1 -> 2,10.903105000000004,10.903104999999995,10.903105,10.903105,10.903105000000004,3.76822190084106e-15,1.1842378929335002e-15,63.78,63.78,63.78,63.78,63.78,0.0,0.0,33.990000000000016,33.98999999999998,33.99,33.99000000000001,33.990000000000016,1.507288760336424e-14,9.473903143468002e-15,3.14,-3.57,-0.275,-0.335,-3.57,2.512016122559726,2.236666666666667
1 -> 2,10.903105000000004,10.903104999999995,10.903105,10.903105,10.903105000000004,3.76822190084106e-15,1.1842378929335002e-15,63.78,63.78,63.78,63.78,63.78,0.0,0.0,33.990000000000016,33.98999999999998,33.99,33.99000000000001,33.990000000000016,1.507288760336424e-14,9.473903143468002e-15,8.2,5.18,6.97,7.25,5.18,1.1590729053860245,1.0066666666666666
1 -> 2,10.903105000000004,10.903104999999995,10.903105,10.903105,10.903105000000004,3.76822190084106e-15,1.1842378929335002e-15,63.78,63.78,63.78,63.78,63.78,0.0,0.0,33.990000000000016,33.98999999999998,33.99,33.99000000000001,33.990000000000016,1.507288760336424e-14,9.473903143468002e-15,8.2,5.18,6.97,7.25,5.18,1.1590729053860245,1.0066666666666666
1 -> 2,10.903105000000004,10.903104999999995,10.903105,10.903105,10.903105000000004,3.76822190084106e-15,1.1842378929335002e-15,63.78,63.78,63.78,63.78,63.78,0.0,0.0,33.990000000000016,33.98999999999998,33.99,33.99000000000001,33.990000000000016,1.507288760336424e-14,9.473903143468002e-15,8.25,7.93,8.055,8.02,7.93,0.12835497652993438,-0.09999999999999994
1 -> 2,10.903105000000004,10.903104999999995,10.903105,10.903105,10.903105000000004,3.76822190084106e-15,1.1842378929335002e-15,63.78,63.78,63.78,63.78,63.78,0.0,0.0,33.990000000000016,33.98999999999998,33.99,33.99000000000001,33.990000000000016,1.507288760336424e-14,9.473903143468002e-15,8.25,7.93,8.055,8.02,7.93,0.12835497652993438,-0.09999999999999994
1 -> 2,10.903105000000004,10.903104999999995,10.903105,10.903105,10.903105000000004,3.76822190084106e-15,1.1842378929335002e-15,63.78,63.78,63.78,63.78,63.78,0.0,0.0,33.990000000000016,33.98999999999998,33.99,33.99000000000001,33.990000000000016,1.507288760336424e-14,9.473903143468002e-15,10.07,8.22,9.100000000000001,9.055,8.22,0.6947301634447722,0.6166666666666666
1 -> 2,10.903105000000004,10.903104999999995,10.903105,10.903105,10.903105000000004,3.76822190084106e-15,1.1842378929335002e-15,63.78,63.78,63.78,63.78,63.78,0.0,0.0,33.990000000000016,33.98999999999998,33.99,33.99000000000001,33.990000000000016,1.507288760336424e-14,9.473903143468002e-15,10.07,8.22,9.100000000000001,9.055,8.22,0.6947301634447722,0.6166666666666666
1 -> 2,10.864704000000003,10.864703999999994,10.864704000000001,10.864704000000003,10.864704000000003,3.76822190084106e-15,2.3684757858670005e-15,63.78,63.78,63.78,63.78,63.78,0.0,0.0,33.990000000000016,33.98999999999998,33.99,33.99000000000001,33.990000000000016,1.507288760336424e-14,9.473903143468002e-15,11.74,10.69,11.270000000000001,11.325,10.69,0.3930012722625719,0.35000000000000026
1 -> 2,10.864704000000003,10.864703999999994,10.864704000000001,10.864704000000003,10.864704000000003,3.76822190084106e-15,2.3684757858670005e-15,63.78,63.78,63.78,63.78,63.78,0.0,0.0,33.990000000000016,33.98999999999998,33.99,33.99000000000001,33.990000000000016,1.507288760336424e-14,9.473903143468002e-15,11.74,10.69,11.270000000000001,11.325,10.69,0.3930012722625719,0.35000000000000026
1 -> 2,10.864704000000003,10.864703999999994,10.864704000000001,10.864704000000003,10.864704000000003,3.76822190084106e-15,2.3684757858670005e-15,63.78,63.78,63.78,63.78,63.78,0.0,0.0,33.990000000000016,33.98999999999998,33.99,33.99000000000001,33.990000000000016,1.507288760336424e-14,9.473903143468002e-15,13.38,12.02,12.655,12.61,12.02,0.5095831629871618,0.45333333333333375
1 -> 2,10.864704000000003,10.864703999999994,10.864704000000001,10.864704000000003,10.864704000000003,3.76822190084106e-15,2.3684757858670005e-15,63.78,63.78,63.78,63.78,63.78,0.0,0.0,33.990000000000016,33.98999999999998,33.99,33.99000000000001,33.990000000000016,1.507288760336424e-14,9.473903143468002e-15,13.38,12.02,12.655,12.61,12.02,0.5095831629871618,0.45333333333333375
1 -> 2,10.864704000000003,10.864703999999994,10.864704000000001,10.864704000000003,10.864704000000003,3.76822190084106e-15,2.3684757858670005e-15,63.78,63.78,63.78,63.78,63.78,0.0,0.0,33.990000000000016,33.98999999999998,33.99,33.99000000000001,33.990000000000016,1.507288760336424e-14,9.473903143468002e-15,14.92,13.91,14.48,14.545,13.91,0.3834709897762803,0.3366666666666666
1 -> 2,10.864704000000003,10.864703999999994,10.864704000000001,10.864704000000003,10.864704000000003,3.76822190084106e-15,2.3684757858670005e-15,63.78,63.78,63.78,63.78,63.78,0.0,0.0,33.990000000000016,33.98999999999998,33.99,33.99000000000001,33.990000000000016,1.507288760336424e-14,9.473903143468002e-15,14.92,13.91,14.48,14.545,13.91,0.3834709897762803,0.3366666666666666
1 -> 2,10.864704000000003,10.864703999999994,10.864704000000001,10.864704000000003,10.864704000000003,3.76822190084106e-15,2.3684757858670005e-15,63.78,63.78,63.78,63.78,63.78,0.0,0.0,33.990000000000016,33.98999999999998,33.99,33.99000000000001,33.990000000000016,1.507288760336424e-14,9.473903143468002e-15,14.95,14.04,14.555,14.614999999999998,14.04,0.3498928407384181,-0.3033333333333334
1 -> 2,10.864704000000003,10.864703999999994,10.864704000000001,10.864704000000003,10.864704000000003,3.76822190084106e-15,2.3684757858670005e-15,63.78,63.78,63.78,63.78,63.78,0.0,0.0,33.990000000000016,33.98999999999998,33.99,33.99000000000001,33.990000000000016,1.507288760336424e-14,9.473903143468002e-15,14.95,14.04,14.555,14.614999999999998,14.04,0.3498928407384181,-0.3033333333333334
1 -> 2,10.808383000000005,10.808383000000001,10.808383000000003,10.808383000000003,10.808383000000003,1.2560739669470201e-15,1.1842378929335002e-15,63.78,63.78,63.78,63.78,63.78,0.0,0.0,33.990000000000016,33.98999999999998,33.99,33.99000000000001,33.990000000000016,1.507288760336424e-14,9.473903143468002e-15,16.16,13.78,14.649999999999999,14.33,13.78,0.9415412895885134,0.7933333333333336
1 -> 2,10.808383000000005,10.808383000000001,10.808383000000003,10.808383000000003,10.808383000000003,1.2560739669470201e-15,1.1842378929335002e-15,63.78,63.78,63.78,63.78,63.78,0.0,0.0,33.990000000000016,33.98999999999998,33.99,33.99000000000001,33.990000000000016,1.507288760336424e-14,9.473903143468002e-15,16.16,13.78,14.649999999999999,14.33,13.78,0.9415412895885134,0.7933333333333336
1 -> 2,10.808383000000005,10.808383000000001,10.808383000000003,10.808383000000003,10.808383000000003,1.2560739669470201e-15,1.1842378929335002e-15,63.78,63.78,63.78,63.78,63.78,0.0,0.0,33.990000000000016,33.98999999999998,33.99,33.99000000000001,33.990000000000016,1.507288760336424e-14,9.473903143468002e-15,24.1,18.11,21.2175,21.33,18.11,2.244653369676486,1.9966666666666673
1 -> 2,10.808383000000005,10.808383000000001,10.808383000000003,10.808383000000003,10.808383000000003,1.2560739669470201e-15,1.1842378929335002e-15,63.78,63.78,63.78,63.78,63.78,0.0,0.0,33.990000000000016,33.98999999999998,33.99,33.99000000000001,33.990000000000016,1.507288760336424e-14,9.473903143468002e-15,24.1,18.11,21.2175,21.33,18.11,2.244653369676486,1.9966666666666673
1 -> 2,10.808383000000005,10.808383000000001,10.808383000000003,10.808383000000003,10.808383000000003,1.2560739669470201e-15,1.1842378929335002e-15,63.78,63.78,63.78,63.78,63.78,0.0,0.0,33.990000000000016,33.98999999999998,33.99,33.99000000000001,33.990000000000016,1.507288760336424e-14,9.473903143468002e-15,25.91,24.97,25.5,25.56,24.97,0.3811823710509187,-0.11333333333333329
1 -> 2,10.808383000000005,10.808383000000001,10.808383000000003,10.808383000000003,10.808383000000003,1.2560739669470201e-15,1.1842378929335002e-15,63.78,63.78,63.78,63.78,63.78,0.0,0.0,33.990000000000016,33.98999999999998,33.99,33.99000000000001,33.990000000000016,1.507288760336424e-14,9.473903143468002e-15,25.91,24.97,25.5,25.56,24.97,0.3811823710509187,-0.11333333333333329
1 -> 2,10.808383000000005,10.808383000000001,10.808383000000003,10.808383000000003,10.808383000000003,1.2560739669470201e-15,1.1842378929335002e-15,63.78,63.78,63.78,63.78,63.78,0.0,0.0,33.990000000000016,33.98999999999998,33.99,33.99000000000001,33.990000000000016,1.507288760336424e-14,9.473903143468002e-15,23.37,14.98,19.4175,19.66,14.98,3.143289479192141,-2.796666666666667
1 -> 2,10.808383000000005,10.808383000000001,10.808383000000003,10.808383000000003,10.808383000000003,1.2560739669470201e-15,1.1842378929335002e-15,63.78,63.78,63.78,63.78,63.78,0.0,0.0,33.990000000000016,33.98999999999998,33.99,33.99000000000001,33.990000000000016,1.507288760336424e-14,9.473903143468002e-15,23.37,14.98,19.4175,19.66,14.98,3.143289479192141,-2.796666666666667
1 -> 2,10.753343000000003,10.753342999999994,10.753343,10.753343000000001,10.753343000000003,3.66205343881779e-15,1.7763568394002505e-15,63.78,63.78,63.78,63.78,63.78,0.0,0.0,33.990000000000016,33.98999999999998,33.99,33.99000000000001,33.990000000000016,1.507288760336424e-14,9.473903143468002e-15,11.48,0.89,6.14,6.095,0.89,3.951411140339613,-3.53
1 -> 2,10.753343000000003,10.753342999999994,10.753343,10.753343000000001,10.753343000000003,3.66205343881779e-15,1.7763568394002505e-15,63.78,63.78,63.78,63.78,63.78,0.0,0.0,33.990000000000016,33.98999999999998,33.99,33.99000000000001,33.990000000000016,1.507288760336424e-14,9.473903143468002e-15,11.48,0.89,6.14,6.095,0.89,3.951411140339613,-3.53
1 -> 2,10.753343000000003,10.753342999999994,10.753343,10.753343000000001,10.753343000000003,3.66205343881779e-15,1.7763568394002505e-15,63.78,63.78,63.78,63.78,63.78,0.0,0.0,33.990000000000016,33.98999999999998,33.99,33.99000000000001,33.990000000000016,1.507288760336424e-14,9.473903143468002e-15,-2.28,-9.99,-6.282500000000001,-6.43,-9.99,2.876016124780944,-2.57
1 -> 2,10.753343000000003,10.753342999999994,10.753343,10.753343000000001,10.753343000000003,3.66205343881779e-15,1.7763568394002505e-15,63.78,63.78,63.78,63.78,63.78,0.0,0.0,33.990000000000016,33.98999999999998,33.99,33.99000000000001,33.990000000000016,1.507288760336424e-14,9.473903143468002e-15,-2.28,-9.99,-6.282500000000001,-6.43,-9.99,2.876016124780944,-2.57
1 -> 2,10.753343000000003,10.753342999999994,10.753343,10.753343000000001,10.753343000000003,3.66205343881779e-15,1.7763568394002505e-15,63.78,63.78,63.78,63.78,63.78,0.0,0.0,33.990000000000016,33.98999999999998,33.99,33.99000000000001,33.990000000000016,1.507288760336424e-14,9.473903143468002e-15,-12.04,-16.93,-14.58,-14.675,-16.93,1.824869858373468,-1.6300000000000001
1 -> 2,10.753343000000003,10.753342999999994,10.753343,10.753343000000001,10.753343000000003,3.66205343881779e-15,1.7763568394002505e-15,63.78,63.78,63.78,63.78,63.78,0.0,0.0,33.990000000000016,33.98999999999998,33.99,33.99000000000001,33.990000000000016,1.507288760336424e-14,9.473903143468002e-15,-12.04,-16.93,-14.58,-14.675,-16.93,1.824869858373468,-1.6300000000000001
1 -> 2,10.753343000000003,10.753342999999994,10.753343,10.753343000000001,10.753343000000003,3.66205343881779e-15,1.7763568394002505e-15,63.78,63.78,63.78,63.78,63.78,0.0,0.0,33.990000000000016,33.98999999999998,33.99,33.99000000000001,33.990000000000016,1.507288760336424e-14,9.473903143468002e-15,-18.24,-21.91,-20.095,-20.115000000000002,-21.91,1.3686215693171,-1.2233333333333338
1 -> 2,10.753343000000003,10.753342999999994,10.753343,10.753343000000001,10.753343000000003,3.66205343881779e-15,1.7763568394002505e-15,63.78,63.78,63.78,63.78,63.78,0.0,0.0,33.990000000000016,33.98999999999998,33.99,33.99000000000001,33.990000000000016,1.507288760336424e-14,9.473903143468002e-15,-18.24,-21.91,-20.095,-20.115000000000002,-21.91,1.3686215693171,-1.2233333333333338
1 -> 2,10.708542000000003,10.708541999999994,10.708542,10.708542000000001,10.708542000000003,3.66205343881779e-15,1.7763568394002505e-15,63.5,63.5,63.5,63.5,63.5,0.0,0.0,33.97000000000001,33.96999999999998,33.97,33.97,33.97000000000001,1.6280579355608324e-14,2.3684757858670005e-15,-22.93,-24.17,-23.725,-23.9,-24.17,0.4948484616526562,-0.413333333333334
1 -> 2,10.708542000000003,10.708541999999994,10.708542,10.708542000000001,10.708542000000003,3.66205343881779e-15,1.7763568394002505e-15,63.5,63.5,63.5,63.5,63.5,0.0,0.0,33.97000000000001,33.96999999999998,33.97,33.97,33.97000000000001,1.6280579355608324e-14,2.3684757858670005e-15,-22.93,-24.17,-23.725,-23.9,-24.17,0.4948484616526562,-0.413333333333334
1 -> 2,10.708542000000003,10.708541999999994,10.708542,10.708542000000001,10.708542000000003,3.66205343881779e-15,1.7763568394002505e-15,63.5,63.5,63.5,63.5,63.5,0.0,0.0,33.97000000000001,33.96999999999998,33.97,33.97,33.97000000000001,1.6280579355608324e-14,2.3684757858670005e-15,-20.67,-23.87,-22.4675,-22.665,-23.87,1.209181024495505,1.0666666666666664
1 -> 2,10.708542000000003,10.708541999999994,10.708542,10.708542000000001,10.708542000000003,3.66205343881779e-15,1.7763568394002505e-15,63.5,63.5,63.5,63.5,63.5,0.0,0.0,33.97000000000001,33.96999999999998,33.97,33.97,33.97000000000001,1.6280579355608324e-14,2.3684757858670005e-15,-20.67,-23.87,-22.4675,-22.665,-23.87,1.209181024495505,1.0666666666666664
1 -> 2,10.708542000000003,10.708541999999994,10.708542,10.708542000000001,10.708542000000003,3.66205343881779e-15,1.7763568394002505e-15,63.5,63.5,63.5,63.5,63.5,0.0,0.0,33.97000000000001,33.96999999999998,33.97,33.97,33.97000000000001,1.6280579355608324e-14,2.3684757858670005e-15,-15.27,-18.93,-16.814999999999998,-16.53,-18.93,1.4071691440619354,1.22
1 -> 2,10.708542000000003,10.708541999999994,10.708542,10.708542000000001,10.708542000000003,3.66205343881779e-15,1.7763568394002505e-15,63.5,63.5,63.5,63.5,63.5,0.0,0.0,33.97000000000001,33.96999999999998,33.97,33.97,33.97000000000001,1.6280579355608324e-14,2.3684757858670005e-15,-15.27,-18.93,-16.814999999999998,-16.53,-18.93,1.4071691440619354,1.22
1 -> 2,10.708542000000003,10.708541999999994,10.708542,10.708542000000001,10.708542000000003,3.66205343881779e-15,1.7763568394002505e-15,63.5,63.5,63.5,63.5,63.5,0.0,0.0,33.97000000000001,33.96999999999998,33.97,33.97,33.97000000000001,1.6280579355608324e-14,2.3684757858670005e-15,-15.62,-20.69,-17.95,-17.744999999999997,-20.69,1.9143275581780677,-1.6900000000000006
1 -> 2,10.708542000000003,10.708541999999994,10.708542,10.708542000000001,10.708542000000003,3.66205343881779e-15,1.7763568394002505e-15,63.5,63.5,63.5,63.5,63.5,0.0,0.0,33.97000000000001,33.96999999999998,33.97,33.97,33.97000000000001,1.6280579355608324e-14,2.3684757858670005e-15,-15.62,-20.69,-17.95,-17.744999999999997,-20.69,1.9143275581780677,-1.6900000000000006
1 -> 2,10.699581000000006,10.699580999999997,10.699581000000002,10.699581000000004,10.699581000000004,3.4399002279594067e-15,2.960594732333751e-15,63.5,63.5,63.5,63.5,63.5,0.0,0.0,33.97000000000001,33.96999999999998,33.97,33.97,33.97000000000001,1.6280579355608324e-14,2.3684757858670005e-15,-22.69,-27.05,-25.0275,-25.185000000000002,-27.05,1.6343557599249927,-1.4533333333333331
1 -> 2,10.699581000000006,10.699580999999997,10.699581000000002,10.699581000000004,10.699581000000004,3.4399002279594067e-15,2.960594732333751e-15,63.5,63.5,63.5,63.5,63.5,0.0,0.0,33.97000000000001,33.96999999999998,33.97,33.97,33.97000000000001,1.6280579355608324e-14,2.3684757858670005e-15,-22.69,-27.05,-25.0275,-25.185000000000002,-27.05,1.6343557599249927,-1.4533333333333331
1 -> 2,10.699581000000006,10.699580999999997,10.699581000000002,10.699581000000004,10.699581000000004,3.4399002279594067e-15,2.960594732333751e-15,63.5,63.5,63.5,63.5,63.5,0.0,0.0,33.97000000000001,33.96999999999998,33.97,33.97,33.97000000000001,1.6280579355608324e-14,2.3684757858670005e-15,-26.66,-27.97,-27.5,-27.685000000000002,-27.97,0.5023445033042561,0.36999999999999983
1 -> 2,10.699581000000006,10.699580999999997,10.699581000000002,10.699581000000004,10.699581000000004,3.4399002279594067e-15,2.960594732333751e-15,63.5,63.5,63.5,63.5,63.5,0.0,0.0,33.97000000000001,33.96999999999998,33.97,33.97,33.97000000000001,1.6280579355608324e-14,2.3684757858670005e-15,-26.66,-27.97,-27.5,-27.685000000000002,-27.97,0.5023445033042561,0.36999999999999983
1 -> 2,10.699581000000006,10.699580999999997,10.699581000000002,10.699581000000004,10.699581000000004,3.4399002279594067e-15,2.960594732333751e-15,63.5,63.5,63.5,63.5,63.5,0.0,0.0,33.97000000000001,33.96999999999998,33.97,33.97,33.97000000000001,1.6280579355608324e-14,2.3684757858670005e-15,-19.98,-25.28,-22.675,-22.72,-25.28,1.97946331110228,1.7666666666666668
1 -> 2,10.699581000000006,10.699580999999997,10.699581000000002,10.699581000000004,10.699581000000004,3.4399002279594067e-15,2.960594732333751e-15,63.5,63.5,63.5,63.5,63.5,0.0,0.0,33.97000000000001,33.96999999999998,33.97,33.97,33.97000000000001,1.6280579355608324e-14,2.3684757858670005e-15,-19.98,-25.28,-22.675,-22.72,-25.28,1.97946331110228,1.7666666666666668
1 -> 2,10.699581000000006,10.699580999999997,10.699581000000002,10.699581000000004,10.699581000000004,3.4399002279594067e-15,2.960594732333751e-15,63.5,63.5,63.5,63.5,63.5,0.0,0.0,33.97000000000001,33.96999999999998,33.97,33.97,33.97000000000001,1.6280579355608324e-14,2.3684757858670005e-15,-11.38,-18.08,-14.834999999999999,-14.940000000000001,-18.08,2.497663908535333,2.2333333333333325
1 -> 2,10.699581000000006,10.699580999999997,10.699581000000002,10.699581000000004,10.699581000000004,3.4399002279594067e-15,2.960594732333751e-15,63.5,63.5,63.5,63.5,63.5,0.0,0.0,33.97000000000001,33.96999999999998,33.97,33.97,33.97000000000001,1.6280579355608324e-14,2.3684757858670005e-15,-11.38,-18.08,-14.834999999999999,-14.940000000000001,-18.08,2.497663908535333,2.2333333333333325
1 -> 2,10.749502000000003,10.749501999999998,10.749502000000001,10.749502000000001,10.749502000000003,2.3498992183808826e-15,5.921189464667501e-16,63.5,63.5,63.5,63.5,63.5,0.0,0.0,33.97000000000001,33.96999999999998,33.97,33.97,33.97000000000001,1.6280579355608324e-14,2.3684757858670005e-15,-1.13,-8.73,-4.819999999999999,-4.71,-8.73,2.842023926711385,2.5333333333333337
1 -> 2,10.749502000000003,10.749501999999998,10.749502000000001,10.749502000000001,10.749502000000003,2.3498992183808826e-15,5.921189464667501e-16,63.5,63.5,63.5,63.5,63.5,0.0,0.0,33.97000000000001,33.96999999999998,33.97,33.97,33.97000000000001,1.6280579355608324e-14,2.3684757858670005e-15,-1.13,-8.73,-4.819999999999999,-4.71,-8.73,2.842023926711385,2.5333333333333337
1 -> 2,10.749502000000003,10.749501999999998,10.749502000000001,10.749502000000001,10.749502000000003,2.3498992183808826e-15,5.921189464667501e-16,63.5,63.5,63.5,63.5,63.5,0.0,0.0,33.97000000000001,33.96999999999998,33.97,33.97,33.97000000000001,1.6280579355608324e-14,2.3684757858670005e-15,4.4,0.69,2.595,2.645,0.69,1.372087825177383,1.2366666666666668
1 -> 2,10.749502000000003,10.749501999999998,10.749502000000001,10.749502000000001,10.749502000000003,2.3498992183808826e-15,5.921189464667501e-16,63.5,63.5,63.5,63.5,63.5,0.0,0.0,33.97000000000001,33.96999999999998,33.97,33.97,33.97000000000001,1.6280579355608324e-14,2.3684757858670005e-15,4.4,0.69,2.595,2.645,0.69,1.372087825177383,1.2366666666666668
1 -> 2,10.749502000000003,10.749501999999998,10.749502000000001,10.749502000000001,10.749502000000003,2.3498992183808826e-15,5.921189464667501e-16,63.5,63.5,63.5,63.5,63.5,0.0,0.0,33.97000000000001,33.96999999999998,33.97,33.97,33.97000000000001,1.6280579355608324e-14,2.3684757858670005e-15,14.23,5.97,9.807500000000001,9.515,5.97,3.09629112810795,2.753333333333334
1 -> 2,10.749502000000003,10.749501999999998,10.749502000000001,10.749502000000001,10.749502000000003,2.3498992183808826e-15,5.921189464667501e-16,63.5,63.5,63.5,63.5,63.5,0.0,0.0,33.97000000000001,33.96999999999998,33.97,33.97,33.97000000000001,1.6280579355608324e-14,2.3684757858670005e-15,14.23,5.97,9.807500000000001,9.515,5.97,3.09629112810795,2.753333333333334
1 -> 2,10.749502000000003,10.749501999999998,10.749502000000001,10.749502000000001,10.749502000000003,2.3498992183808826e-15,5.921189464667501e-16,63.5,63.5,63.5,63.5,63.5,0.0,0.0,33.97000000000001,33.96999999999998,33.97,33.97,33.97000000000001,1.6280579355608324e-14,2.3684757858670005e-15,28.65,17.86,23.33,23.405,17.86,4.025636595620623,3.5966666666666662
1 -> 2,10.749502000000003,10.749501999999998,10.749502000000001,10.749502000000001,10.749502000000003,2.3498992183808826e-15,5.921189464667501e-16,63.5,63.5,63.5,63.5,63.5,0.0,0.0,33.97000000000001,33.96999999999998,33.97,33.97,33.97000000000001,1.6280579355608324e-14,2.3684757858670005e-15,28.65,17.86,23.33,23.405,17.86,4.025636595620623,3.5966666666666662
1 -> 2,10.836544000000004,10.836543999999996,10.836544,10.836544,10.836543999999996,3.552713678800501e-15,0.0,63.5,63.5,63.5,63.5,63.5,0.0,0.0,33.97000000000001,33.96999999999998,33.97,33.97,33.97000000000001,1.6280579355608324e-14,2.3684757858670005e-15,38.25,31.77,35.3125,35.614999999999995,31.77,2.4417040668352907,2.16
1 -> 2,10.836544000000004,10.836543999999996,10.836544,10.836544,10.836543999999996,3.552713678800501e-15,0.0,63.5,63.5,63.5,63.5,63.5,0.0,0.0,33.97000000000001,33.96999999999998,33.97,33.97,33.97000000000001,1.6280579355608324e-14,2.3684757858670005e-15,38.25,31.77,35.3125,35.614999999999995,31.77,2.4417040668352907,2.16
1 -> 2,10.836544000000004,10.836543999999996,10.836544,10.836544,10.836543999999996,3.552713678800501e-15,0.0,63.5,63.5,63.5,63.5,63.5,0.0,0.0,33.97000000000001,33.96999999999998,33.97,33.97,33.97000000000001,1.6280579355608324e-14,2.3684757858670005e-15,38.85,34.32,37.097500000000004,37.61,34.32,1.7697369154764222,-1.5100000000000005
1 -> 2,10.836544000000004,10.836543999999996,10.836544,10.836544,10.836543999999996,3.552713678800501e-15,0.0,63.5,63.5,63.5,63.5,63.5,0.0,0.0,33.97000000000001,33.96999999999998,33.97,33.97,33.97000000000001,1.6280579355608324e-14,2.3684757858670005e-15,38.85,34.32,37.097500000000004,37.61,34.32,1.7697369154764222,-1.5100000000000005
1 -> 2,10.836544000000004,10.836543999999996,10.836544,10.836544,10.836543999999996,3.552713678800501e-15,0.0,63.5,63.5,63.5,63.5,63.5,0.0,0.0,33.97000000000001,33.96999999999998,33.97,33.97,33.97000000000001,1.6280579355608324e-14,2.3684757858670005e-15,31.17,21.23,26.137500000000003,26.075000000000003,21.23,3.7113297818975886,-3.313333333333334
1 -> 2,10.836544000000004,10.836543999999996,10.836544,10.836544,10.836543999999996,3.552713678800501e-15,0.0,63.5,63.5,63.5,63.5,63.5,0.0,0.0,33.97000000000001,33.96999999999998,33.97,33.97,33.97000000000001,1.6280579355608324e-14,2.3684757858670005e-15,31.17,21.23,26.137500000000003,26.075000000000003,21.23,3.7113297818975886,-3.313333333333334
1 -> 2,10.836544000000004,10.836543999999996,10.836544,10.836544,10.836543999999996,3.552713678800501e-15,0.0,63.5,63.5,63.5,63.5,63.5,0.0,0.0,33.97000000000001,33.96999999999998,33.97,33.97,33.97000000000001,1.6280579355608324e-14,2.3684757858670005e-15,18.3,9.92,14.120000000000001,14.129999999999999,9.92,3.1193508940162538,-2.7933333333333334
1 -> 2,10.836544000000004,10.836543999999996,10.836544,10.836544,10.836543999999996,3.552713678800501e-15,0.0,63.5,63.5,63.5,63.5,63.5,0.0,0.0,33.97000000000001,33.96999999999998,33.97,33.97,33.97000000000001,1.6280579355608324e-14,2.3684757858670005e-15,18.3,9.92,14.120000000000001,14.129999999999999,9.92,3.1193508940162538,-2.7933333333333334
1 -> 2,10.936385000000003,10.936384999999992,10.936385,10.936385000000001,10.936385000000003,4.440892098500626e-15,2.960594732333751e-15,63.09,63.09,63.09,63.09,63.09,0.0,0.0,33.990000000000016,33.98999999999998,33.99,33.99000000000001,33.990000000000016,1.507288760336424e-14,9.473903143468002e-15,6.96,-3.02,2.0675,2.165,-3.02,3.7209768542682444,-3.3266666666666667
1 -> 2,10.936385000000003,10.936384999999992,10.936385,10.936385000000001,10.936385000000003,4.440892098500626e-15,2.960594732333751e-15,63.09,63.09,63.09,63.09,63.09,0.0,0.0,33.990000000000016,33.98999999999998,33.99,33.99000000000001,33.990000000000016,1.507288760336424e-14,9.473903143468002e-15,6.96,-3.02,2.0675,2.165,-3.02,3.7209768542682444,-3.3266666666666667
1 -> 2,10.936385000000003,10.936384999999992,10.936385,10.936385000000001,10.936385000000003,4.440892098500626e-15,2.960594732333751e-15,63.09,63.09,63.09,63.09,63.09,0.0,0.0,33.990000000000016,33.98999999999998,33.99,33.99000000000001,33.990000000000016,1.507288760336424e-14,9.473903143468002e-15,-6.65,-17.4,-12.075,-12.125,-17.4,4.009591625091014,-3.5833333333333326
1 -> 2,10.936385000000003,10.936384999999992,10.936385,10.936385000000001,10.936385000000003,4.440892098500626e-15,2.960594732333751e-15,63.09,63.09,63.09,63.09,63.09,0.0,0.0,33.990000000000016,33.98999999999998,33.99,33.99000000000001,33.990000000000016,1.507288760336424e-14,9.473903143468002e-15,-6.65,-17.4,-12.075,-12.125,-17.4,4.009591625091014,-3.5833333333333326
1 -> 2,10.936385000000003,10.936384999999992,10.936385,10.936385000000001,10.936385000000003,4.440892098500626e-15,2.960594732333751e-15,63.09,63.09,63.09,63.09,63.09,0.0,0.0,33.990000000000016,33.98999999999998,33.99,33.99000000000001,33.990000000000016,1.507288760336424e-14,9.473903143468002e-15,-20.65,-27.97,-24.572499999999998,-24.835,-27.97,2.7462189916319493,-2.44
