PHASE,EDA_MAX,EDA_MIN,EDA_MEAN,EDA_MEDIAN,EDA_MODE,EDA_SD,HR_MAX,HR_MIN,HR_MEAN,HR_MEDIAN,HR_MODE,HR_SD,SKT_MAX,SKT_MIN,SKT_MEAN,SKT_MEDIAN,SKT_MODE,SKT_SD,BVP_MAX,BVP_MIN,BVP_MEAN,BVP_MEDIAN,BVP_MODE,BVP_SD
1 -> 2,0.7210480000000002,0.721048,0.7210480000000001,0.7210480000000001,0.7210480000000002,9.614813431917819e-17,62.0,62.0,62.0,62.0,62.0,0.0,30.050000000000015,30.049999999999983,30.049999999999997,30.05,30.050000000000015,1.5383701491068513e-14,26.82,9.72,19.015,19.759999999999998,9.72,6.462006267406431
1 -> 2,0.7210480000000002,0.721048,0.7210480000000001,0.7210480000000001,0.7210480000000002,9.614813431917819e-17,62.0,62.0,62.0,62.0,62.0,0.0,30.050000000000015,30.049999999999983,30.049999999999997,30.05,30.050000000000015,1.5383701491068513e-14,26.82,9.72,19.015,19.759999999999998,9.72,6.462006267406431
1 -> 2,0.7210480000000002,0.721048,0.7210480000000001,0.7210480000000001,0.7210480000000002,9.614813431917819e-17,62.0,62.0,62.0,62.0,62.0,0.0,30.050000000000015,30.049999999999983,30.049999999999997,30.05,30.050000000000015,1.5383701491068513e-14,3.64,-0.57,1.08,0.625,-0.57,1.617977132100451
1 -> 2,0.7210480000000002,0.721048,0.7210480000000001,0.7210480000000001,0.7210480000000002,9.614813431917819e-17,62.0,62.0,62.0,62.0,62.0,0.0,30.050000000000015,30.049999999999983,30.049999999999997,30.05,30.050000000000015,1.5383701491068513e-14,3.64,-0.57,1.08,0.625,-0.57,1.617977132100451
1 -> 2,0.7210480000000002,0.721048,0.7210480000000001,0.7210480000000001,0.7210480000000002,9.614813431917819e-17,62.0,62.0,62.0,62.0,62.0,0.0,30.050000000000015,30.049999999999983,30.049999999999997,30.05,30.050000000000015,1.5383701491068513e-14,5.64,3.87,4.8475,4.9399999999999995,3.87,0.7945871569563656
1 -> 2,0.7210480000000002,0.721048,0.7210480000000001,0.7210480000000001,0.7210480000000002,9.614813431917819e-17,62.0,62.0,62.0,62.0,62.0,0.0,30.050000000000015,30.049999999999983,30.049999999999997,30.05,30.050000000000015,1.5383701491068513e-14,5.64,3.87,4.8475,4.9399999999999995,3.87,0.7945871569563656
1 -> 2,0.7210480000000002,0.721048,0.7210480000000001,0.7210480000000001,0.7210480000000002,9.614813431917819e-17,62.0,62.0,62.0,62.0,62.0,0.0,30.050000000000015,30.049999999999983,30.049999999999997,30.05,30.050000000000015,1.5383701491068513e-14,4.64,2.05,3.0649999999999995,2.785,2.05,0.9623019276713519
1 -> 2,0.7210480000000002,0.721048,0.7210480000000001,0.7210480000000001,0.7210480000000002,9.614813431917819e-17,62.0,62.0,62.0,62.0,62.0,0.0,30.050000000000015,30.049999999999983,30.049999999999997,30.05,30.050000000000015,1.5383701491068513e-14,4.64,2.05,3.0649999999999995,2.785,2.05,0.9623019276713519
1 -> 2,0.7172080000000002,0.7172079999999996,0.717208,0.717208,0.7172080000000002,2.5438405243138006e-16,62.0,62.0,62.0,62.0,62.0,0.0,30.050000000000015,30.049999999999983,30.049999999999997,30.05,30.050000000000015,1.5383701491068513e-14,5.77,-7.02,1.0025,2.63,-7.02,5.0321783305045935
1 -> 2,0.7172080000000002,0.7172079999999996,0.717208,0.717208,0.7172080000000002,2.5438405243138006e-16,62.0,62.0,62.0,62.0,62.0,0.0,30.050000000000015,30.049999999999983,30.049999999999997,30.05,30.050000000000015,1.5383701491068513e-14,5.77,-7.02,1.0025,2.63,-7.02,5.0321783305045935
1 -> 2,0.7172080000000002,0.7172079999999996,0.717208,0.717208,0.7172080000000002,2.5438405243138006e-16,62.0,62.0,62.0,62.0,62.0,0.0,30.050000000000015,30.049999999999983,30.049999999999997,30.05,30.050000000000015,1.5383701491068513e-14,-17.2,-48.79,-33.66,-34.325,-48.79,11.867402832970658
1 -> 2,0.7172080000000002,0.7172079999999996,0.717208,0.717208,0.7172080000000002,2.5438405243138006e-16,62.0,62.0,62.0,62.0,62.0,0.0,30.050000000000015,30.049999999999983,30.049999999999997,30.05,30.050000000000015,1.5383701491068513e-14,-17.2,-48.79,-33.66,-34.325,-48.79,11.867402832970658
1 -> 2,0.7172080000000002,0.7172079999999996,0.717208,0.717208,0.7172080000000002,2.5438405243138006e-16,62.0,62.0,62.0,62.0,62.0,0.0,30.050000000000015,30.049999999999983,30.049999999999997,30.05,30.050000000000015,1.5383701491068513e-14,-31.01,-53.31,-45.037499999999994,-47.915,-53.31,8.842135983460105
1 -> 2,0.7172080000000002,0.7172079999999996,0.717208,0.717208,0.7172080000000002,2.5438405243138006e-16,62.0,62.0,62.0,62.0,62.0,0.0,30.050000000000015,30.049999999999983,30.049999999999997,30.05,30.050000000000015,1.5383701491068513e-14,-31.01,-53.31,-45.037499999999994,-47.915,-53.31,8.842135983460105
1 -> 2,0.7172080000000002,0.7172079999999996,0.717208,0.717208,0.7172080000000002,2.5438405243138006e-16,62.0,62.0,62.0,62.0,62.0,0.0,30.050000000000015,30.049999999999983,30.049999999999997,30.05,30.050000000000015,1.5383701491068513e-14,6.77,-15.98,-1.6800000000000006,1.2449999999999999,-15.98,9.019492779530344
1 -> 2,0.7172080000000002,0.7172079999999996,0.717208,0.717208,0.7172080000000002,2.5438405243138006e-16,62.0,62.0,62.0,62.0,62.0,0.0,30.050000000000015,30.049999999999983,30.049999999999997,30.05,30.050000000000015,1.5383701491068513e-14,6.77,-15.98,-1.6800000000000006,1.2449999999999999,-15.98,9.019492779530344
1 -> 2,0.7236090000000002,0.7236089999999997,0.723609,0.723609,0.7236090000000002,2.0014830212433605e-16,62.0,62.0,62.0,62.0,62.0,0.0,30.050000000000015,30.049999999999983,30.049999999999997,30.05,30.050000000000015,1.5383701491068513e-14,2.7,-14.62,-6.695,-7.43,-14.62,6.581737992354299
1 -> 2,0.7236090000000002,0.7236089999999997,0.723609,0.723609,0.7236090000000002,2.0014830212433605e-16,62.0,62.0,62.0,62.0,62.0,0.0,30.050000000000015,30.049999999999983,30.049999999999997,30.05,30.050000000000015,1.5383701491068513e-14,2.7,-14.62,-6.695,-7.43,-14.62,6.581737992354299
1 -> 2,0.7236090000000002,0.7236089999999997,0.723609,0.723609,0.7236090000000002,2.0014830212433605e-16,62.0,62.0,62.0,62.0,62.0,0.0,30.050000000000015,30.049999999999983,30.049999999999997,30.05,30.050000000000015,1.5383701491068513e-14,-10.14,-15.47,-12.96,-13.115,-15.47,2.0300615754208047
1 -> 2,0.7236090000000002,0.7236089999999997,0.723609,0.723609,0.7236090000000002,2.0014830212433605e-16,62.0,62.0,62.0,62.0,62.0,0.0,30.050000000000015,30.049999999999983,30.049999999999997,30.05,30.050000000000015,1.5383701491068513e-14,-10.14,-15.47,-12.96,-13.115,-15.47,2.0300615754208047
1 -> 2,0.7236090000000002,0.7236089999999997,0.723609,0.723609,0.7236090000000002,2.0014830212433605e-16,62.0,62.0,62.0,62.0,62.0,0.0,30.050000000000015,30.049999999999983,30.049999999999997,30.05,30.050000000000015,1.5383701491068513e-14,1.59,-8.39,-3.9700000000000006,-4.54,-8.39,3.75981382517805
1 -> 2,0.7236090000000002,0.7236089999999997,0.723609,0.723609,0.7236090000000002,2.0014830212433605e-16,62.0,62.0,62.0,62.0,62.0,0.0,30.050000000000015,30.049999999999983,30.049999999999997,30.05,30.050000000000015,1.5383701491068513e-14,1.59,-8.39,-3.9700000000000006,-4.54,-8.39,3.75981382517805
1 -> 2,0.7236090000000002,0.7236089999999997,0.723609,0.723609,0.7236090000000002,2.0014830212433605e-16,62.0,62.0,62.0,62.0,62.0,0.0,30.050000000000015,30.049999999999983,30.049999999999997,30.05,30.050000000000015,1.5383701491068513e-14,13.88,6.58,11.24,12.25,6.58,2.9222251795506793
1 -> 2,0.7236090000000002,0.7236089999999997,0.723609,0.723609,0.7236090000000002,2.0014830212433605e-16,62.0,62.0,62.0,62.0,62.0,0.0,30.050000000000015,30.049999999999983,30.049999999999997,30.05,30.050000000000015,1.5383701491068513e-14,13.88,6.58,11.24,12.25,6.58,2.9222251795506793
1 -> 2,0.7159270000000003,0.715927,0.7159270000000001,0.7159270000000002,0.7159270000000002,1.4686870114880517e-16,62.0,62.0,62.0,62.0,62.0,0.0,30.050000000000015,30.049999999999983,30.049999999999997,30.05,30.050000000000015,1.5383701491068513e-14,12.0,-0.43,6.095000000000001,6.405,-0.43,4.659369592552194
1 -> 2,0.7159270000000003,0.715927,0.7159270000000001,0.7159270000000002,0.7159270000000002,1.4686870114880517e-16,62.0,62.0,62.0,62.0,62.0,0.0,30.050000000000015,30.049999999999983,30.049999999999997,30.05,30.050000000000015,1.5383701491068513e-14,12.0,-0.43,6.095000000000001,6.405,-0.43,4.659369592552194
1 -> 2,0.7159270000000003,0.715927,0.7159270000000001,0.7159270000000002,0.7159270000000002,1.4686870114880517e-16,62.0,62.0,62.0,62.0,62.0,0.0,30.050000000000015,30.049999999999983,30.049999999999997,30.05,30.050000000000015,1.5383701491068513e-14,-5.49,-25.38,-14.982499999999998,-14.53,-25.38,7.429718618494243
1 -> 2,0.7159270000000003,0.715927,0.7159270000000001,0.7159270000000002,0.7159270000000002,1.4686870114880517e-16,62.0,62.0,62.0,62.0,62.0,0.0,30.050000000000015,30.049999999999983,30.049999999999997,30.05,30.050000000000015,1.5383701491068513e-14,-5.49,-25.38,-14.982499999999998,-14.53,-25.38,7.429718618494243
1 -> 2,0.7159270000000003,0.715927,0.7159270000000001,0.7159270000000002,0.7159270000000002,1.4686870114880517e-16,62.0,62.0,62.0,62.0,62.0,0.0,30.050000000000015,30.049999999999983,30.049999999999997,30.05,30.050000000000015,1.5383701491068513e-14,-33.14,-46.86,-41.205,-42.41,-46.86,5.278430164357581
1 -> 2,0.7159270000000003,0.715927,0.7159270000000001,0.7159270000000002,0.7159270000000002,1.4686870114880517e-16,62.0,62.0,62.0,62.0,62.0,0.0,30.050000000000015,30.049999999999983,30.049999999999997,30.05,30.050000000000015,1.5383701491068513e-14,-33.14,-46.86,-41.205,-42.41,-46.86,5.278430164357581
1 -> 2,0.7159270000000003,0.715927,0.7159270000000001,0.7159270000000002,0.7159270000000002,1.4686870114880517e-16,62.0,62.0,62.0,62.0,62.0,0.0,30.050000000000015,30.049999999999983,30.049999999999997,30.05,30.050000000000015,1.5383701491068513e-14,-44.13,-46.42,-45.39,-45.505,-46.42,0.9433186100146647
1 -> 2,0.7159270000000003,0.715927,0.7159270000000001,0.7159270000000002,0.7159270000000002,1.4686870114880517e-16,62.0,62.0,62.0,62.0,62.0,0.0,30.050000000000015,30.049999999999983,30.049999999999997,30.05,30.050000000000015,1.5383701491068513e-14,-44.13,-46.42,-45.39,-45.505,-46.42,0.9433186100146647
1 -> 2,0.7197680000000002,0.7197679999999997,0.7197680000000001,0.7197680000000002,0.7197680000000002,1.9229626863835638e-16,63.0,63.0,63.0,63.0,63.0,0.0,30.070000000000014,30.069999999999993,30.070000000000007,30.070000000000007,30.070000000000014,8.881784197001252e-15,-51.91,-82.41,-66.765,-66.37,-82.41,11.448638565349157
1 -> 2,0.7197680000000002,0.7197679999999997,0.7197680000000001,0.7197680000000002,0.7197680000000002,1.9229626863835638e-16,63.0,63.0,63.0,63.0,63.0,0.0,30.070000000000014,30.069999999999993,30.070000000000007,30.070000000000007,30.070000000000014,8.881784197001252e-15,-51.91,-82.41,-66.765,-66.37,-82.41,11.448638565349157
1 -> 2,0.7197680000000002,0.7197679999999997,0.7197680000000001,0.7197680000000002,0.7197680000000002,1.9229626863835638e-16,63.0,63.0,63.0,63.0,63.0,0.0,30.070000000000014,30.069999999999993,30.070000000000007,30.070000000000007,30.070000000000014,8.881784197001252e-15,-91.13,-99.1,-96.14,-97.16499999999999,-99.1,3.0052204578033876
1 -> 2,0.7197680000000002,0.7197679999999997,0.7197680000000001,0.7197680000000002,0.7197680000000002,1.9229626863835638e-16,63.0,63.0,63.0,63.0,63.0,0.0,30.070000000000014,30.069999999999993,30.070000000000007,30.070000000000007,30.070000000000014,8.881784197001252e-15,-91.13,-99.1,-96.14,-97.16499999999999,-99.1,3.0052204578033876
1 -> 2,0.7197680000000002,0.7197679999999997,0.7197680000000001,0.7197680000000002,0.7197680000000002,1.9229626863835638e-16,63.0,63.0,63.0,63.0,63.0,0.0,30.070000000000014,30.069999999999993,30.070000000000007,30.070000000000007,30.070000000000014,8.881784197001252e-15,-55.22,-91.68,-74.48250000000002,-75.515,-91.68,13.701989590931678
1 -> 2,0.7197680000000002,0.7197679999999997,0.7197680000000001,0.7197680000000002,0.7197680000000002,1.9229626863835638e-16,63.0,63.0,63.0,63.0,63.0,0.0,30.070000000000014,30.069999999999993,30.070000000000007,30.070000000000007,30.070000000000014,8.881784197001252e-15,-55.22,-91.68,-74.48250000000002,-75.515,-91.68,13.701989590931678
1 -> 2,0.7197680000000002,0.7197679999999997,0.7197680000000001,0.7197680000000002,0.7197680000000002,1.9229626863835638e-16,63.0,63.0,63.0,63.0,63.0,0.0,30.070000000000014,30.069999999999993,30.070000000000007,30.070000000000007,30.070000000000014,8.881784197001252e-15,-30.04,-42.82,-34.275,-32.120000000000005,-42.82,5.203856742839872
1 -> 2,0.7197680000000002,0.7197679999999997,0.7197680000000001,0.7197680000000002,0.7197680000000002,1.9229626863835638e-16,63.0,63.0,63.0,63.0,63.0,0.0,30.070000000000014,30.069999999999993,30.070000000000007,30.070000000000007,30.070000000000014,8.881784197001252e-15,-30.04,-42.82,-34.275,-32.120000000000005,-42.82,5.203856742839872
1 -> 2,0.7172080000000002,0.7172079999999996,0.717208,0.717208,0.7172080000000002,2.5438405243138006e-16,63.0,63.0,63.0,63.0,63.0,0.0,30.070000000000014,30.069999999999993,30.070000000000007,30.070000000000007,30.070000000000014,8.881784197001252e-15,-32.07,-35.93,-34.4175,-34.835,-35.93,1.4919345662595263
1 -> 2,0.7172080000000002,0.7172079999999996,0.717208,0.717208,0.7172080000000002,2.5438405243138006e-16,63.0,63.0,63.0,63.0,63.0,0.0,30.070000000000014,30.069999999999993,30.070000000000007,30.070000000000007,30.070000000000014,8.881784197001252e-15,-32.07,-35.93,-34.4175,-34.835,-35.93,1.4919345662595263
1 -> 2,0.7172080000000002,0.7172079999999996,0.717208,0.717208,0.7172080000000002,2.5438405243138006e-16,63.0,63.0,63.0,63.0,63.0,0.0,30.070000000000014,30.069999999999993,30.070000000000007,30.070000000000007,30.070000000000014,8.881784197001252e-15,-36.46,-38.84,-37.8775,-38.105000000000004,-38.84,0.939318236807953
1 -> 2,0.7172080000000002,0.7172079999999996,0.717208,0.717208,0.7172080000000002,2.5438405243138006e-16,63.0,63.0,63.0,63.0,63.0,0.0,30.070000000000014,30.069999999999993,30.070000000000007,30.070000000000007,30.070000000000014,8.881784197001252e-15,-36.46,-38.84,-37.8775,-38.105000000000004,-38.84,0.939318236807953
1 -> 2,0.7172080000000002,0.7172079999999996,0.717208,0.717208,0.7172080000000002,2.5438405243138006e-16,63.0,63.0,63.0,63.0,63.0,0.0,30.070000000000014,30.069999999999993,30.070000000000007,30.070000000000007,30.070000000000014,8.881784197001252e-15,-6.32,-35.18,-21.674999999999997,-22.6,-35.18,10.885222781367407
1 -> 2,0.7172080000000002,0.7172079999999996,0.717208,0.717208,0.7172080000000002,2.5438405243138006e-16,63.0,63.0,63.0,63.0,63.0,0.0,30.070000000000014,30.069999999999993,30.070000000000007,30.070000000000007,30.070000000000014,8.881784197001252e-15,-6.32,-35.18,-21.674999999999997,-22.6,-35.18,10.885222781367407
1 -> 2,0.7172080000000002,0.7172079999999996,0.717208,0.717208,0.7172080000000002,2.5438405243138006e-16,63.0,63.0,63.0,63.0,63.0,0.0,30.070000000000014,30.069999999999993,30.070000000000007,30.070000000000007,30.070000000000014,8.881784197001252e-15,8.78,2.66,6.659999999999999,7.6,2.66,2.3606355076546652
1 -> 2,0.7172080000000002,0.7172079999999996,0.717208,0.717208,0.7172080000000002,2.5438405243138006e-16,63.0,63.0,63.0,63.0,63.0,0.0,30.070000000000014,30.069999999999993,30.070000000000007,30.070000000000007,30.070000000000014,8.881784197001252e-15,8.78,2.66,6.659999999999999,7.6,2.66,2.3606355076546652
1 -> 2,0.7184880000000002,0.7184879999999993,0.7184879999999999,0.718488,0.7184880000000002,3.805652793121308e-16,63.0,63.0,63.0,63.0,63.0,0.0,30.070000000000014,30.069999999999993,30.070000000000007,30.070000000000007,30.070000000000014,8.881784197001252e-15,15.0,6.24,9.64,8.66,6.24,3.451644535580105
1 -> 2,0.7184880000000002,0.7184879999999993,0.7184879999999999,0.718488,0.7184880000000002,3.805652793121308e-16,63.0,63.0,63.0,63.0,63.0,0.0,30.070000000000014,30.069999999999993,30.070000000000007,30.070000000000007,30.070000000000014,8.881784197001252e-15,15.0,6.24,9.64,8.66,6.24,3.451644535580105
1 -> 2,0.7184880000000002,0.7184879999999993,0.7184879999999999,0.718488,0.7184880000000002,3.805652793121308e-16,63.0,63.0,63.0,63.0,63.0,0.0,30.070000000000014,30.069999999999993,30.070000000000007,30.070000000000007,30.070000000000014,8.881784197001252e-15,18.66,-1.87,11.762500000000001,15.129999999999999,-1.87,8.328962645491933
1 -> 2,0.7184880000000002,0.7184879999999993,0.7184879999999999,0.718488,0.7184880000000002,3.805652793121308e-16,63.0,63.0,63.0,63.0,63.0,0.0,30.070000000000014,30.069999999999993,30.070000000000007,30.070000000000007,30.070000000000014,8.881784197001252e-15,18.66,-1.87,11.762500000000001,15.129999999999999,-1.87,8.328962645491933
1 -> 2,0.7184880000000002,0.7184879999999993,0.7184879999999999,0.718488,0.7184880000000002,3.805652793121308e-16,63.0,63.0,63.0,63.0,63.0,0.0,30.070000000000014,30.069999999999993,30.070000000000007,30.070000000000007,30.070000000000014,8.881784197001252e-15,-21.71,-81.15,-53.295,-55.16,-81.15,22.401532871658585
1 -> 2,0.7184880000000002,0.7184879999999993,0.7184879999999999,0.718488,0.7184880000000002,3.805652793121308e-16,63.0,63.0,63.0,63.0,63.0,0.0,30.070000000000014,30.069999999999993,30.070000000000007,30.070000000000007,30.070000000000014,8.881784197001252e-15,-21.71,-81.15,-53.295,-55.16,-81.15,22.401532871658585
1 -> 2,0.7184880000000002,0.7184879999999993,0.7184879999999999,0.718488,0.7184880000000002,3.805652793121308e-16,63.0,63.0,63.0,63.0,63.0,0.0,30.070000000000014,30.069999999999993,30.070000000000007,30.070000000000007,30.070000000000014,8.881784197001252e-15,-64.18,-87.71,-78.31,-80.675,-87.71,9.231492295398393
1 -> 2,0.7184880000000002,0.7184879999999993,0.7184879999999999,0.718488,0.7184880000000002,3.805652793121308e-16,63.0,63.0,63.0,63.0,63.0,0.0,30.070000000000014,30.069999999999993,30.070000000000007,30.070000000000007,30.070000000000014,8.881784197001252e-15,-64.18,-87.71,-78.31,-80.675,-87.71,9.231492295398393
1 -> 2,0.7159270000000003,0.715927,0.7159270000000001,0.7159270000000002,0.7159270000000002,1.4686870114880517e-16,63.0,63.0,63.0,63.0,63.0,0.0,30.070000000000014,30.069999999999993,30.070000000000007,30.070000000000007,30.070000000000014,8.881784197001252e-15,-34.43,-53.13,-42.93000000000001,-42.08,-53.13,6.955702696349235
1 -> 2,0.7159270000000003,0.715927,0.7159270000000001,0.7159270000000002,0.7159270000000002,1.4686870114880517e-16,63.0,63.0,63.0,63.0,63.0,0.0,30.070000000000014,30.069999999999993,30.070000000000007,30.070000000000007,30.070000000000014,8.881784197001252e-15,-34.43,-53.13,-42.93000000000001,-42.08,-53.13,6.955702696349235
1 -> 2,0.7159270000000003,0.715927,0.7159270000000001,0.7159270000000002,0.7159270000000002,1.4686870114880517e-16,63.0,63.0,63.0,63.0,63.0,0.0,30.070000000000014,30.069999999999993,30.070000000000007,30.070000000000007,30.070000000000014,8.881784197001252e-15,-1.39,-28.38,-15.1225,-15.36,-28.38,10.137966697025592
1 -> 2,0.7159270000000003,0.715927,0.7159270000000001,0.7159270000000002,0.7159270000000002,1.4686870114880517e-16,63.0,63.0,63.0,63.0,63.0,0.0,30.070000000000014,30.069999999999993,30.070000000000007,30.070000000000007,30.070000000000014,8.881784197001252e-15,-1.39,-28.38,-15.1225,-15.36,-28.38,10.137966697025592
1 -> 2,0.7159270000000003,0.715927,0.7159270000000001,0.7159270000000002,0.7159270000000002,1.4686870114880517e-16,63.0,63.0,63.0,63.0,63.0,0.0,30.070000000000014,30.069999999999993,30.070000000000007,30.070000000000007,30.070000000000014,8.881784197001252e-15,7.19,-0.53,4.165,5.0,-0.53,2.854334423293809
1 -> 2,0.7159270000000003,0.715927,0.7159270000000001,0.7159270000000002,0.7159270000000002,1.4686870114880517e-16,63.0,63.0,63.0,63.0,63.0,0.0,30.070000000000014,30.069999999999993,30.070000000000007,30.070000000000007,30.070000000000014,8.881784197001252e-15,7.19,-0.53,4.165,5.0,-0.53,2.854334423293809
1 -> 2,0.7159270000000003,0.715927,0.7159270000000001,0.7159270000000002,0.7159270000000002,1.4686870114880517e-16,63.0,63.0,63.0,63.0,63.0,0.0,30.070000000000014,30.069999999999993,30.070000000000007,30.070000000000007,30.070000000000014,8.881784197001252e-15,-7.61,-25.73,-17.1725,-17.675,-25.73,6.774947878028288
1 -> 2,0.7159270000000003,0.715927,0.7159270000000001,0.7159270000000002,0.7159270000000002,1.4686870114880517e-16,63.0,63.0,63.0,63.0,63.0,0.0,30.070000000000014,30.069999999999993,30.070000000000007,30.070000000000007,30.070000000000014,8.881784197001252e-15,-7.61,-25.73,-17.1725,-17.675,-25.73,6.774947878028288
1 -> 2,0.7223290000000002,0.7223289999999999,0.7223290000000001,0.7223290000000001,0.7223290000000002,1.4686870114880517e-16,63.0,63.0,63.0,63.0,63.0,0.0,30.070000000000014,30.069999999999993,30.070000000000007,30.070000000000007,30.070000000000014,8.881784197001252e-15,-30.05,-36.6,-34.2075,-35.09,-36.6,2.6432212828289656
1 -> 2,0.7223290000000002,0.7223289999999999,0.7223290000000001,0.7223290000000001,0.7223290000000002,1.4686870114880517e-16,63.0,63.0,63.0,63.0,63.0,0.0,30.070000000000014,30.069999999999993,30.070000000000007,30.070000000000007,30.070000000000014,8.881784197001252e-15,-30.05,-36.6,-34.2075,-35.09,-36.6,2.6432212828289656
1 -> 2,0.7223290000000002,0.7223289999999999,0.7223290000000001,0.7223290000000001,0.7223290000000002,1.4686870114880517e-16,63.0,63.0,63.0,63.0,63.0,0.0,30.070000000000014,30.069999999999993,30.070000000000007,30.070000000000007,30.070000000000014,8.881784197001252e-15,-2.79,-33.09,-18.94,-19.94,-33.09,11.428582589280266
1 -> 2,0.7223290000000002,0.7223289999999999,0.7223290000000001,0.7223290000000001,0.7223290000000002,1.4686870114880517e-16,63.0,63.0,63.0,63.0,63.0,0.0,30.070000000000014,30.069999999999993,30.070000000000007,30.070000000000007,30.070000000000014,8.881784197001252e-15,-2.79,-33.09,-18.94,-19.94,-33.09,11.428582589280266
1 -> 2,0.7223290000000002,0.7223289999999999,0.7223290000000001,0.7223290000000001,0.7223290000000002,1.4686870114880517e-16,63.0,63.0,63.0,63.0,63.0,0.0,30.070000000000014,30.069999999999993,30.070000000000007,30.070000000000007,30.070000000000014,8.881784197001252e-15,12.1,6.8,9.805,10.16,6.8,2.2928748330425717
1 -> 2,0.7223290000000002,0.7223289999999999,0.7223290000000001,0.7223290000000001,0.7223290000000002,1.4686870114880517e-16,63.0,63.0,63.0,63.0,63.0,0.0,30.070000000000014,30.069999999999993,30.070000000000007,30.070000000000007,30.070000000000014,8.881784197001252e-15,12.1,6.8,9.805,10.16,6.8,2.2928748330425717
1 -> 2,0.7223290000000002,0.7223289999999999,0.7223290000000001,0.7223290000000001,0.7223290000000002,1.4686870114880517e-16,63.0,63.0,63.0,63.0,63.0,0.0,30.070000000000014,30.069999999999993,30.070000000000007,30.070000000000007,30.070000000000014,8.881784197001252e-15,2.9,-8.92,-3.62,-4.23,-8.92,4.444879075970459
1 -> 2,0.7223290000000002,0.7223289999999999,0.7223290000000001,0.7223290000000001,0.7223290000000002,1.4686870114880517e-16,63.0,63.0,63.0,63.0,63.0,0.0,30.070000000000014,30.069999999999993,30.070000000000007,30.070000000000007,30.070000000000014,8.881784197001252e-15,2.9,-8.92,-3.62,-4.23,-8.92,4.444879075970459
1 -> 2,0.7197680000000002,0.7197679999999997,0.7197680000000001,0.7197680000000002,0.7197680000000002,1.9229626863835638e-16,63.0,63.0,63.0,63.0,63.0,0.0,30.070000000000014,30.069999999999993,30.070000000000007,30.070000000000007,30.070000000000014,8.881784197001252e-15,-11.01,-13.37,-12.392499999999998,-12.595,-13.37,0.8591965723860866
1 -> 2,0.7197680000000002,0.7197679999999997,0.7197680000000001,0.7197680000000002,0.7197680000000002,1.9229626863835638e-16,63.0,63.0,63.0,63.0,63.0,0.0,30.070000000000014,30.069999999999993,30.070000000000007,30.070000000000007,30.070000000000014,8.881784197001252e-15,-11.01,-13.37,-12.392499999999998,-12.595,-13.37,0.8591965723860866
1 -> 2,0.7197680000000002,0.7197679999999997,0.7197680000000001,0.7197680000000002,0.7197680000000002,1.9229626863835638e-16,63.0,63.0,63.0,63.0,63.0,0.0,30.070000000000014,30.069999999999993,30.070000000000007,30.070000000000007,30.070000000000014,8.881784197001252e-15,-5.39,-10.16,-7.1675,-6.5600000000000005,-10.16,1.8540816459908125
1 -> 2,0.7197680000000002,0.7197679999999997,0.7197680000000001,0.7197680000000002,0.7197680000000002,1.9229626863835638e-16,63.0,63.0,63.0,63.0,63.0,0.0,30.070000000000014,30.069999999999993,30.070000000000007,30.070000000000007,30.070000000000014,8.881784197001252e-15,-5.39,-10.16,-7.1675,-6.5600000000000005,-10.16,1.8540816459908125
1 -> 2,0.7197680000000002,0.7197679999999997,0.7197680000000001,0.7197680000000002,0.7197680000000002,1.9229626863835638e-16,63.0,63.0,63.0,63.0,63.0,0.0,30.070000000000014,30.069999999999993,30.070000000000007,30.070000000000007,30.070000000000014,8.881784197001252e-15,-8.63,-14.14,-12.120000000000001,-12.855,-14.14,2.1548433817797523
1 -> 2,0.7197680000000002,0.7197679999999997,0.7197680000000001,0.7197680000000002,0.7197680000000002,1.9229626863835638e-16,63.0,63.0,63.0,63.0,63.0,0.0,30.070000000000014,30.069999999999993,30.070000000000007,30.070000000000007,30.070000000000014,8.881784197001252e-15,-8.63,-14.14,-12.120000000000001,-12.855,-14.14,2.1548433817797523
1 -> 2,0.7197680000000002,0.7197679999999997,0.7197680000000001,0.7197680000000002,0.7197680000000002,1.9229626863835638e-16,63.0,63.0,63.0,63.0,63.0,0.0,30.070000000000014,30.069999999999993,30.070000000000007,30.070000000000007,30.070000000000014,8.881784197001252e-15,-8.87,-13.3,-10.635000000000002,-10.185,-13.3,1.7694420024403177
1 -> 2,0.7197680000000002,0.7197679999999997,0.7197680000000001,0.7197680000000002,0.7197680000000002,1.9229626863835638e-16,63.0,63.0,63.0,63.0,63.0,0.0,30.070000000000014,30.069999999999993,30.070000000000007,30.070000000000007,30.070000000000014,8.881784197001252e-15,-8.87,-13.3,-10.635000000000002,-10.185,-13.3,1.7694420024403177
1 -> 2,0.7210480000000002,0.721048,0.7210480000000001,0.7210480000000001,0.7210480000000002,9.614813431917819e-17,63.0,63.0,63.0,63.0,63.0,0.0,30.070000000000014,30.069999999999993,30.070000000000007,30.070000000000007,30.070000000000014,8.881784197001252e-15,-20.04,-29.71,-25.965,-27.055,-29.71,3.60544380069916
1 -> 2,0.7210480000000002,0.721048,0.7210480000000001,0.7210480000000001,0.7210480000000002,9.614813431917819e-17,63.0,63.0,63.0,63.0,63.0,0.0,30.070000000000014,30.069999999999993,30.070000000000007,30.070000000000007,30.070000000000014,8.881784197001252e-15,-20.04,-29.71,-25.965,-27.055,-29.71,3.60544380069916
1 -> 2,0.7210480000000002,0.721048,0.7210480000000001,0.7210480000000001,0.7210480000000002,9.614813431917819e-17,63.0,63.0,63.0,63.0,63.0,0.0,30.070000000000014,30.069999999999993,30.070000000000007,30.070000000000007,30.070000000000014,8.881784197001252e-15,16.54,-20.14,-2.2675,-2.7350000000000003,-20.14,13.73047226973639
1 -> 2,0.7210480000000002,0.721048,0.7210480000000001,0.7210480000000001,0.7210480000000002,9.614813431917819e-17,63.0,63.0,63.0,63.0,63.0,0.0,30.070000000000014,30.069999999999993,30.070000000000007,30.070000000000007,30.070000000000014,8.881784197001252e-15,16.54,-20.14,-2.2675,-2.7350000000000003,-20.14,13.73047226973639
1 -> 2,0.7210480000000002,0.721048,0.7210480000000001,0.7210480000000001,0.7210480000000002,9.614813431917819e-17,63.0,63.0,63.0,63.0,63.0,0.0,30.070000000000014,30.069999999999993,30.070000000000007,30.070000000000007,30.070000000000014,8.881784197001252e-15,71.44,29.39,49.9625,49.51,29.39,15.669094381935414
1 -> 2,0.7210480000000002,0.721048,0.7210480000000001,0.7210480000000001,0.7210480000000002,9.614813431917819e-17,63.0,63.0,63.0,63.0,63.0,0.0,30.070000000000014,30.069999999999993,30.070000000000007,30.070000000000007,30.070000000000014,8.881784197001252e-15,71.44,29.39,49.9625,49.51,29.39,15.669094381935414
1 -> 2,0.7210480000000002,0.721048,0.7210480000000001,0.7210480000000001,0.7210480000000002,9.614813431917819e-17,63.0,63.0,63.0,63.0,63.0,0.0,30.070000000000014,30.069999999999993,30.070000000000007,30.070000000000007,30.070000000000014,8.881784197001252e-15,142.63,87.46,114.42999999999999,113.815,87.46,20.572076949107498
1 -> 2,0.7210480000000002,0.721048,0.7210480000000001,0.7210480000000001,0.7210480000000002,9.614813431917819e-17,63.0,63.0,63.0,63.0,63.0,0.0,30.070000000000014,30.069999999999993,30.070000000000007,30.070000000000007,30.070000000000014,8.881784197001252e-15,142.63,87.46,114.42999999999999,113.815,87.46,20.572076949107498
1 -> 2,0.7261690000000002,0.7261689999999996,0.7261689999999998,0.726169,0.7261690000000002,2.6622212897024595e-16,63.0,63.0,63.0,63.0,63.0,0.0,30.070000000000014,30.069999999999993,30.070000000000007,30.070000000000007,30.070000000000014,8.881784197001252e-15,209.65,162.72,188.0725,189.95999999999998,162.72,17.65649508679455
1 -> 2,0.7261690000000002,0.7261689999999996,0.7261689999999998,0.726169,0.7261690000000002,2.6622212897024595e-16,63.0,63.0,63.0,63.0,63.0,0.0,30.070000000000014,30.069999999999993,30.070000000000007,30.070000000000007,30.070000000000014,8.881784197001252e-15,209.65,162.72,188.0725,189.95999999999998,162.72,17.65649508679455
1 -> 2,0.7261690000000002,0.7261689999999996,0.7261689999999998,0.726169,0.7261690000000002,2.6622212897024595e-16,63.0,63.0,63.0,63.0,63.0,0.0,30.070000000000014,30.069999999999993,30.070000000000007,30.070000000000007,30.070000000000014,8.881784197001252e-15,215.82,202.95,211.385,213.385,202.95,5.204971181476418
1 -> 2,0.7261690000000002,0.7261689999999996,0.7261689999999998,0.726169,0.7261690000000002,2.6622212897024595e-16,63.0,63.0,63.0,63.0,63.0,0.0,30.070000000000014,30.069999999999993,30.070000000000007,30.070000000000007,30.070000000000014,8.881784197001252e-15,215.82,202.95,211.385,213.385,202.95,5.204971181476418
1 -> 2,0.7261690000000002,0.7261689999999996,0.7261689999999998,0.726169,0.7261690000000002,2.6622212897024595e-16,63.0,63.0,63.0,63.0,63.0,0.0,30.070000000000014,30.069999999999993,30.070000000000007,30.070000000000007,30.070000000000014,8.881784197001252e-15,192.49,161.87,176.5575,175.935,161.87,11.47419142031368
1 -> 2,0.7261690000000002,0.7261689999999996,0.7261689999999998,0.726169,0.7261690000000002,2.6622212897024595e-16,63.0,63.0,63.0,63.0,63.0,0.0,30.070000000000014,30.069999999999993,30.070000000000007,30.070000000000007,30.070000000000014,8.881784197001252e-15,192.49,161.87,176.5575,175.935,161.87,11.47419142031368
1 -> 2,0.7261690000000002,0.7261689999999996,0.7261689999999998,0.726169,0.7261690000000002,2.6622212897024595e-16,63.0,63.0,63.0,63.0,63.0,0.0,30.070000000000014,30.069999999999993,30.070000000000007,30.070000000000007,30.070000000000014,8.881784197001252e-15,155.71,148.74,151.70000000000002,151.175,148.74,2.6048704382368038
1 -> 2,0.7261690000000002,0.7261689999999996,0.7261689999999998,0.726169,0.7261690000000002,2.6622212897024595e-16,63.0,63.0,63.0,63.0,63.0,0.0,30.070000000000014,30.069999999999993,30.070000000000007,30.070000000000007,30.070000000000014,8.881784197001252e-15,155.71,148.74,151.70000000000002,151.175,148.74,2.6048704382368038
1 -> 2,0.7325710000000002,0.7325709999999999,0.7325710000000001,0.7325710000000001,0.7325709999999999,1.7554167342883506e-16,63.25,63.25,63.25,63.25,63.25,0.0,30.070000000000014,30.069999999999993,30.070000000000007,30.070000000000007,30.070000000000014,8.881784197001252e-15,146.28,126.17,137.4275,138.63,126.17,7.585642276696153
1 -> 2,0.7325710000000002,0.7325709999999999,0.7325710000000001,0.7325710000000001,0.7325709999999999,1.7554167342883506e-16,63.25,63.25,63.25,63.25,63.25,0.0,30.070000000000014,30.069999999999993,30.070000000000007,30.070000000000007,30.070000000000014,8.881784197001252e-15,146.28,126.17,137.4275,138.63,126.17,7.585642276696153
1 -> 2,0.7325710000000002,0.7325709999999999,0.7325710000000001,0.7325710000000001,0.7325709999999999,1.7554167342883506e-16,63.25,63.25,63.25,63.25,63.25,0.0,30.070000000000014,30.069999999999993,30.070000000000007,30.070000000000007,30.070000000000014,8.881784197001252e-15,114.49,65.16,90.85249999999999,91.88,65.16,18.43722643864852
1 -> 2,0.7325710000000002,0.7325709999999999,0.7325710000000001,0.7325710000000001,0.7325709999999999,1.7554167342883506e-16,63.25,63.25,63.25,63.25,63.25,0.0,30.070000000000014,30.069999999999993,30.070000000000007,30.070000000000007,30.070000000000014,8.881784197001252e-15,114.49,65.16,90.85249999999999,91.88,65.16,18.43722643864852
1 -> 2,0.7325710000000002,0.7325709999999999,0.7325710000000001,0.7325710000000001,0.7325709999999999,1.7554167342883506e-16,63.25,63.25,63.25,63.25,63.25,0.0,30.070000000000014,30.069999999999993,30.070000000000007,30.070000000000007,30.070000000000014,8.881784197001252e-15,46.04,-7.09,18.944999999999997,18.415,-7.09,19.809710371431482
1 -> 2,0.7325710000000002,0.7325709999999999,0.7325710000000001,0.7325710000000001,0.7325709999999999,1.7554167342883506e-16,63.25,63.25,63.25,63.25,63.25,0.0,30.070000000000014,30.069999999999993,30.070000000000007,30.070000000000007,30.070000000000014,8.881784197001252e-15,46.04,-7.09,18.944999999999997,18.415,-7.09,19.809710371431482
1 -> 2,0.7325710000000002,0.7325709999999999,0.7325710000000001,0.7325710000000001,0.7325709999999999,1.7554167342883506e-16,63.25,63.25,63.25,63.25,63.25,0.0,30.070000000000014,30.069999999999993,30.070000000000007,30.070000000000007,30.070000000000014,8.881784197001252e-15,-23.01,-68.11,-45.9025,-46.245,-68.11,16.835642807745714
1 -> 2,0.7325710000000002,0.7325709999999999,0.7325710000000001,0.7325710000000001,0.7325709999999999,1.7554167342883506e-16,63.25,63.25,63.25,63.25,63.25,0.0,30.070000000000014,30.069999999999993,30.070000000000007,30.070000000000007,30.070000000000014,8.881784197001252e-15,-23.01,-68.11,-45.9025,-46.245,-68.11,16.835642807745714
1 -> 2,0.7325710000000002,0.7325709999999999,0.7325710000000001,0.7325710000000001,0.7325709999999999,1.7554167342883506e-16,63.25,63.25,63.25,63.25,63.25,0.0,30.070000000000014,30.069999999999993,30.070000000000007,30.070000000000007,30.070000000000014,8.881784197001252e-15,-80.34,-99.34,-91.315,-92.78999999999999,-99.34,7.218422611623678
1 -> 2,0.7325710000000002,0.7325709999999999,0.7325710000000001,0.7325710000000001,0.7325709999999999,1.7554167342883506e-16,63.25,63.25,63.25,63.25,63.25,0.0,30.070000000000014,30.069999999999993,30.070000000000007,30.070000000000007,30.070000000000014,8.881784197001252e-15,-80.34,-99.34,-91.315,-92.78999999999999,-99.34,7.218422611623678
1 -> 2,0.7325710000000002,0.7325709999999999,0.7325710000000001,0.7325710000000001,0.7325709999999999,1.7554167342883506e-16,63.25,63.25,63.25,63.25,63.25,0.0,30.070000000000014,30.069999999999993,30.070000000000007,30.070000000000007,30.070000000000014,8.881784197001252e-15,-100.89,-101.41,-101.1825,-101.215,-101.41,0.22398381637966425
1 -> 2,0.7325710000000002,0.7325709999999999,0.7325710000000001,0.7325710000000001,0.7325709999999999,1.7554167342883506e-16,63.25,63.25,63.25,63.25,63.25,0.0,30.070000000000014,30.069999999999993,30.070000000000007,30.070000000000007,30.070000000000014,8.881784197001252e-15,-100.89,-101.41,-101.1825,-101.215,-101.41,0.22398381637966425
1 -> 2,0.7325710000000002,0.7325709999999999,0.7325710000000001,0.7325710000000001,0.7325709999999999,1.7554167342883506e-16,63.25,63.25,63.25,63.25,63.25,0.0,30.070000000000014,30.069999999999993,30.070000000000007,30.070000000000007,30.070000000000014,8.881784197001252e-15,-94.66,-100.17,-97.555,-97.695,-100.17,2.07357782588453
1 -> 2,0.7325710000000002,0.7325709999999999,0.7325710000000001,0.7325710000000001,0.7325709999999999,1.7554167342883506e-16,63.25,63.25,63.25,63.25,63.25,0.0,30.070000000000014,30.069999999999993,30.070000000000007,30.070000000000007,30.070000000000014,8.881784197001252e-15,-94.66,-100.17,-97.555,-97.695,-100.17,2.07357782588453
1 -> 2,0.7325710000000002,0.7325709999999999,0.7325710000000001,0.7325710000000001,0.7325709999999999,1.7554167342883506e-16,63.25,63.25,63.25,63.25,63.25,0.0,30.070000000000014,30.069999999999993,30.070000000000007,30.070000000000007,30.070000000000014,8.881784197001252e-15,-92.28,-93.19,-92.735,-92.735,-93.19,0.3913118960624613
1 -> 2,0.7325710000000002,0.7325709999999999,0.7325710000000001,0.7325710000000001,0.7325709999999999,1.7554167342883506e-16,63.25,63.25,63.25,63.25,63.25,0.0,30.070000000000014,30.069999999999993,30.070000000000007,30.070000000000007,30.070000000000014,8.881784197001252e-15,-92.28,-93.19,-92.735,-92.735,-93.19,0.3913118960624613
1 -> 2,0.7376920000000002,0.7376919999999996,0.737692,0.737692,0.7376920000000002,2.9373740229761033e-16,63.25,63.25,63.25,63.25,63.25,0.0,30.070000000000014,30.069999999999993,30.070000000000007,30.070000000000007,30.070000000000014,8.881784197001252e-15,-92.59,-94.56,-93.845,-94.11500000000001,-94.56,0.7472114827811462
1 -> 2,0.7376920000000002,0.7376919999999996,0.737692,0.737692,0.7376920000000002,2.9373740229761033e-16,63.25,63.25,63.25,63.25,63.25,0.0,30.070000000000014,30.069999999999993,30.070000000000007,30.070000000000007,30.070000000000014,8.881784197001252e-15,-92.59,-94.56,-93.845,-94.11500000000001,-94.56,0.7472114827811462
1 -> 2,0.7376920000000002,0.7376919999999996,0.737692,0.737692,0.7376920000000002,2.9373740229761033e-16,63.25,63.25,63.25,63.25,63.25,0.0,30.070000000000014,30.069999999999993,30.070000000000007,30.070000000000007,30.070000000000014,8.881784197001252e-15,-74.45,-89.8,-82.6725,-83.22,-89.8,5.751588367572907
1 -> 2,0.7376920000000002,0.7376919999999996,0.737692,0.737692,0.7376920000000002,2.9373740229761033e-16,63.25,63.25,63.25,63.25,63.25,0.0,30.070000000000014,30.069999999999993,30.070000000000007,30.070000000000007,30.070000000000014,8.881784197001252e-15,-74.45,-89.8,-82.6725,-83.22,-89.8,5.751588367572907
1 -> 2,0.7376920000000002,0.7376919999999996,0.737692,0.737692,0.7376920000000002,2.9373740229761033e-16,63.25,63.25,63.25,63.25,63.25,0.0,30.070000000000014,30.069999999999993,30.070000000000007,30.070000000000007,30.070000000000014,8.881784197001252e-15,-42.85,-67.37,-55.255,-55.4,-67.37,9.153473384459039
1 -> 2,0.7376920000000002,0.7376919999999996,0.737692,0.737692,0.7376920000000002,2.9373740229761033e-16,63.25,63.25,63.25,63.25,63.25,0.0,30.070000000000014,30.069999999999993,30.070000000000007,30.070000000000007,30.070000000000014,8.881784197001252e-15,-42.85,-67.37,-55.255,-55.4,-67.37,9.153473384459039
1 -> 2,0.7376920000000002,0.7376919999999996,0.737692,0.737692,0.7376920000000002,2.9373740229761033e-16,63.25,63.25,63.25,63.25,63.25,0.0,30.070000000000014,30.069999999999993,30.070000000000007,30.070000000000007,30.070000000000014,8.881784197001252e-15,-17.44,-34.81,-25.425,-24.725,-34.81,6.51785432485262
1 -> 2,0.7376920000000002,0.7376919999999996,0.737692,0.737692,0.7376920000000002,2.9373740229761033e-16,63.25,63.25,63.25,63.25,63.25,0.0,30.070000000000014,30.069999999999993,30.070000000000007,30.070000000000007,30.070000000000014,8.881784197001252e-15,-17.44,-34.81,-25.425,-24.725,-34.81,6.51785432485262
1 -> 2,0.7402520000000002,0.7402519999999997,0.7402519999999999,0.740252,0.7402520000000002,2.6622212897024595e-16,63.25,63.25,63.25,63.25,63.25,0.0,30.070000000000014,30.069999999999993,30.070000000000007,30.070000000000007,30.070000000000014,8.881784197001252e-15,-9.6,-14.41,-11.795,-11.585,-14.41,1.7947492861121301
1 -> 2,0.7402520000000002,0.7402519999999997,0.7402519999999999,0.740252,0.7402520000000002,2.6622212897024595e-16,63.25,63.25,63.25,63.25,63.25,0.0,30.070000000000014,30.069999999999993,30.070000000000007,30.070000000000007,30.070000000000014,8.881784197001252e-15,-9.6,-14.41,-11.795,-11.585,-14.41,1.7947492861121301
1 -> 2,0.7402520000000002,0.7402519999999997,0.7402519999999999,0.740252,0.7402520000000002,2.6622212897024595e-16,63.25,63.25,63.25,63.25,63.25,0.0,30.070000000000014,30.069999999999993,30.070000000000007,30.070000000000007,30.070000000000014,8.881784197001252e-15,-3.66,-8.51,-6.3775,-6.67,-8.51,1.814474786267365
1 -> 2,0.7402520000000002,0.7402519999999997,0.7402519999999999,0.740252,0.7402520000000002,2.6622212897024595e-16,63.25,63.25,63.25,63.25,63.25,0.0,30.070000000000014,30.069999999999993,30.070000000000007,30.070000000000007,30.070000000000014,8.881784197001252e-15,-3.66,-8.51,-6.3775,-6.67,-8.51,1.814474786267365
1 -> 2,0.7402520000000002,0.7402519999999997,0.7402519999999999,0.740252,0.7402520000000002,2.6622212897024595e-16,63.25,63.25,63.25,63.25,63.25,0.0,30.070000000000014,30.069999999999993,30.070000000000007,30.070000000000007,30.070000000000014,8.881784197001252e-15,13.76,-0.27,6.6825,6.62,-0.27,5.256882988045293
1 -> 2,0.7402520000000002,0.7402519999999997,0.7402519999999999,0.740252,0.7402520000000002,2.6622212897024595e-16,63.25,63.25,63.25,63.25,63.25,0.0,30.070000000000014,30.069999999999993,30.070000000000007,30.070000000000007,30.070000000000014,8.881784197001252e-15,13.76,-0.27,6.6825,6.62,-0.27,5.256882988045293
1 -> 2,0.7402520000000002,0.7402519999999997,0.7402519999999999,0.740252,0.7402520000000002,2.6622212897024595e-16,63.25,63.25,63.25,63.25,63.25,0.0,30.070000000000014,30.069999999999993,30.070000000000007,30.070000000000007,30.070000000000014,8.881784197001252e-15,27.05,17.7,22.3925,22.41,17.7,3.467465753255539
1 -> 2,0.7402520000000002,0.7402519999999997,0.7402519999999999,0.740252,0.7402520000000002,2.6622212897024595e-16,63.25,63.25,63.25,63.25,63.25,0.0,30.070000000000014,30.069999999999993,30.070000000000007,30.070000000000007,30.070000000000014,8.881784197001252e-15,27.05,17.7,22.3925,22.41,17.7,3.467465753255539
1 -> 2,0.7440930000000002,0.7440929999999997,0.7440930000000001,0.7440930000000002,0.7440930000000002,2.4196749845665633e-16,62.8,62.8,62.8,62.8,62.8,0.0,30.070000000000014,30.069999999999993,30.070000000000007,30.070000000000007,30.070000000000014,8.881784197001252e-15,37.16,30.51,34.417500000000004,35.0,30.51,2.566538281421104
1 -> 2,0.7440930000000002,0.7440929999999997,0.7440930000000001,0.7440930000000002,0.7440930000000002,2.4196749845665633e-16,62.8,62.8,62.8,62.8,62.8,0.0,30.070000000000014,30.069999999999993,30.070000000000007,30.070000000000007,30.070000000000014,8.881784197001252e-15,37.16,30.51,34.417500000000004,35.0,30.51,2.566538281421104
1 -> 2,0.7440930000000002,0.7440929999999997,0.7440930000000001,0.7440930000000002,0.7440930000000002,2.4196749845665633e-16,62.8,62.8,62.8,62.8,62.8,0.0,30.070000000000014,30.069999999999993,30.070000000000007,30.070000000000007,30.070000000000014,8.881784197001252e-15,36.71,32.65,34.655,34.63,32.65,1.530465615425581
1 -> 2,0.7440930000000002,0.7440929999999997,0.7440930000000001,0.7440930000000002,0.7440930000000002,2.4196749845665633e-16,62.8,62.8,62.8,62.8,62.8,0.0,30.070000000000014,30.069999999999993,30.070000000000007,30.070000000000007,30.070000000000014,8.881784197001252e-15,36.71,32.65,34.655,34.63,32.65,1.530465615425581
1 -> 2,0.7440930000000002,0.7440929999999997,0.7440930000000001,0.7440930000000002,0.7440930000000002,2.4196749845665633e-16,62.8,62.8,62.8,62.8,62.8,0.0,30.070000000000014,30.069999999999993,30.070000000000007,30.070000000000007,30.070000000000014,8.881784197001252e-15,31.61,23.9,28.377499999999998,29.0,23.9,2.9240500594210084
1 -> 2,0.7440930000000002,0.7440929999999997,0.7440930000000001,0.7440930000000002,0.7440930000000002,2.4196749845665633e-16,62.8,62.8,62.8,62.8,62.8,0.0,30.070000000000014,30.069999999999993,30.070000000000007,30.070000000000007,30.070000000000014,8.881784197001252e-15,31.61,23.9,28.377499999999998,29.0,23.9,2.9240500594210084
1 -> 2,0.7440930000000002,0.7440929999999997,0.7440930000000001,0.7440930000000002,0.7440930000000002,2.4196749845665633e-16,62.8,62.8,62.8,62.8,62.8,0.0,30.070000000000014,30.069999999999993,30.070000000000007,30.070000000000007,30.070000000000014,8.881784197001252e-15,18.61,0.13,9.2875,9.205,0.13,6.913726835072383
1 -> 2,0.7440930000000002,0.7440929999999997,0.7440930000000001,0.7440930000000002,0.7440930000000002,2.4196749845665633e-16,62.8,62.8,62.8,62.8,62.8,0.0,30.070000000000014,30.069999999999993,30.070000000000007,30.070000000000007,30.070000000000014,8.881784197001252e-15,18.61,0.13,9.2875,9.205,0.13,6.913726835072383
1 -> 2,0.7466530000000002,0.7466529999999997,0.746653,0.746653,0.7466530000000002,2.3551386880256624e-16,62.8,62.8,62.8,62.8,62.8,0.0,30.070000000000014,30.069999999999993,30.070000000000007,30.070000000000007,30.070000000000014,8.881784197001252e-15,-4.97,-18.45,-11.655,-11.6,-18.45,5.007122427103216
1 -> 2,0.7466530000000002,0.7466529999999997,0.746653,0.746653,0.7466530000000002,2.3551386880256624e-16,62.8,62.8,62.8,62.8,62.8,0.0,30.070000000000014,30.069999999999993,30.070000000000007,30.070000000000007,30.070000000000014,8.881784197001252e-15,-4.97,-18.45,-11.655,-11.6,-18.45,5.007122427103216
1 -> 2,0.7466530000000002,0.7466529999999997,0.746653,0.746653,0.7466530000000002,2.3551386880256624e-16,62.8,62.8,62.8,62.8,62.8,0.0,30.070000000000014,30.069999999999993,30.070000000000007,30.070000000000007,30.070000000000014,8.881784197001252e-15,-23.45,-30.93,-28.2925,-29.395,-30.93,3.018910192436999
1 -> 2,0.7466530000000002,0.7466529999999997,0.746653,0.746653,0.7466530000000002,2.3551386880256624e-16,62.8,62.8,62.8,62.8,62.8,0.0,30.070000000000014,30.069999999999993,30.070000000000007,30.070000000000007,30.070000000000014,8.881784197001252e-15,-23.45,-30.93,-28.2925,-29.395,-30.93,3.018910192436999
1 -> 2,0.7466530000000002,0.7466529999999997,0.746653,0.746653,0.7466530000000002,2.3551386880256624e-16,62.8,62.8,62.8,62.8,62.8,0.0,30.070000000000014,30.069999999999993,30.070000000000007,30.070000000000007,30.070000000000014,8.881784197001252e-15,-0.38,-26.74,-14.0675,-14.575,-26.74,9.911073037264934
1 -> 2,0.7466530000000002,0.7466529999999997,0.746653,0.746653,0.7466530000000002,2.3551386880256624e-16,62.8,62.8,62.8,62.8,62.8,0.0,30.070000000000014,30.069999999999993,30.070000000000007,30.070000000000007,30.070000000000014,8.881784197001252e-15,-0.38,-26.74,-14.0675,-14.575,-26.74,9.911073037264934
1 -> 2,0.7466530000000002,0.7466529999999997,0.746653,0.746653,0.7466530000000002,2.3551386880256624e-16,62.8,62.8,62.8,62.8,62.8,0.0,30.070000000000014,30.069999999999993,30.070000000000007,30.070000000000007,30.070000000000014,8.881784197001252e-15,21.64,7.54,15.0275,15.465,7.54,5.227022933754931
1 -> 2,0.7466530000000002,0.7466529999999997,0.746653,0.746653,0.7466530000000002,2.3551386880256624e-16,62.8,62.8,62.8,62.8,62.8,0.0,30.070000000000014,30.069999999999993,30.070000000000007,30.070000000000007,30.070000000000014,8.881784197001252e-15,21.64,7.54,15.0275,15.465,7.54,5.227022933754931
1 -> 2,0.7492140000000003,0.7492139999999997,0.749214,0.749214,0.7492140000000003,2.3551386880256624e-16,62.8,62.8,62.8,62.8,62.8,0.0,30.070000000000014,30.069999999999993,30.070000000000007,30.070000000000007,30.070000000000014,8.881784197001252e-15,41.65,26.48,34.5375,35.010000000000005,26.48,5.736668785105167
1 -> 2,0.7492140000000003,0.7492139999999997,0.749214,0.749214,0.7492140000000003,2.3551386880256624e-16,62.8,62.8,62.8,62.8,62.8,0.0,30.070000000000014,30.069999999999993,30.070000000000007,30.070000000000007,30.070000000000014,8.881784197001252e-15,41.65,26.48,34.5375,35.010000000000005,26.48,5.736668785105167
1 -> 2,0.7492140000000003,0.7492139999999997,0.749214,0.749214,0.7492140000000003,2.3551386880256624e-16,62.8,62.8,62.8,62.8,62.8,0.0,30.070000000000014,30.069999999999993,30.070000000000007,30.070000000000007,30.070000000000014,8.881784197001252e-15,42.59,36.46,39.4575,39.39,36.46,2.3895331657041314
1 -> 2,0.7492140000000003,0.7492139999999997,0.749214,0.749214,0.7492140000000003,2.3551386880256624e-16,62.8,62.8,62.8,62.8,62.8,0.0,30.070000000000014,30.069999999999993,30.070000000000007,30.070000000000007,30.070000000000014,8.881784197001252e-15,42.59,36.46,39.4575,39.39,36.46,2.3895331657041314
1 -> 2,0.7492140000000003,0.7492139999999997,0.749214,0.749214,0.7492140000000003,2.3551386880256624e-16,62.8,62.8,62.8,62.8,62.8,0.0,30.070000000000014,30.069999999999993,30.070000000000007,30.070000000000007,30.070000000000014,8.881784197001252e-15,59.87,38.23,48.4125,47.775000000000006,38.23,8.183069030015572
1 -> 2,0.7492140000000003,0.7492139999999997,0.749214,0.749214,0.7492140000000003,2.3551386880256624e-16,62.8,62.8,62.8,62.8,62.8,0.0,30.070000000000014,30.069999999999993,30.070000000000007,30.070000000000007,30.070000000000014,8.881784197001252e-15,59.87,38.23,48.4125,47.775000000000006,38.23,8.183069030015572
1 -> 2,0.7492140000000003,0.7492139999999997,0.749214,0.749214,0.7492140000000003,2.3551386880256624e-16,62.8,62.8,62.8,62.8,62.8,0.0,30.070000000000014,30.069999999999993,30.070000000000007,30.070000000000007,30.070000000000014,8.881784197001252e-15,68.04,63.79,66.1375,66.36,63.79,1.586999921235036
1 -> 2,0.7492140000000003,0.7492139999999997,0.749214,0.749214,0.7492140000000003,2.3551386880256624e-16,62.8,62.8,62.8,62.8,62.8,0.0,30.070000000000014,30.069999999999993,30.070000000000007,30.070000000000007,30.070000000000014,8.881784197001252e-15,68.04,63.79,66.1375,66.36,63.79,1.586999921235036
1 -> 2,0.7492140000000003,0.7492139999999997,0.749214,0.749214,0.7492140000000003,2.3551386880256624e-16,62.8,62.8,62.8,62.8,62.8,0.0,30.070000000000014,30.069999999999993,30.070000000000007,30.070000000000007,30.070000000000014,8.881784197001252e-15,59.78,50.63,54.83,54.455,50.63,3.4372881752916786
1 -> 2,0.7492140000000003,0.7492139999999997,0.749214,0.749214,0.7492140000000003,2.3551386880256624e-16,62.8,62.8,62.8,62.8,62.8,0.0,30.070000000000014,30.069999999999993,30.070000000000007,30.070000000000007,30.070000000000014,8.881784197001252e-15,59.78,50.63,54.83,54.455,50.63,3.4372881752916786
1 -> 2,0.7492140000000003,0.7492139999999997,0.749214,0.749214,0.7492140000000003,2.3551386880256624e-16,62.8,62.8,62.8,62.8,62.8,0.0,30.070000000000014,30.069999999999993,30.070000000000007,30.070000000000007,30.070000000000014,8.881784197001252e-15,56.56,49.45,52.015,51.025,49.45,2.8307463680096814
1 -> 2,0.7492140000000003,0.7492139999999997,0.749214,0.749214,0.7492140000000003,2.3551386880256624e-16,62.8,62.8,62.8,62.8,62.8,0.0,30.070000000000014,30.069999999999993,30.070000000000007,30.070000000000007,30.070000000000014,8.881784197001252e-15,56.56,49.45,52.015,51.025,49.45,2.8307463680096814
1 -> 2,0.7492140000000003,0.7492139999999997,0.749214,0.749214,0.7492140000000003,2.3551386880256624e-16,62.8,62.8,62.8,62.8,62.8,0.0,30.070000000000014,30.069999999999993,30.070000000000007,30.070000000000007,30.070000000000014,8.881784197001252e-15,73.81,62.12,68.805,69.64500000000001,62.12,4.460843530096076
1 -> 2,0.7492140000000003,0.7492139999999997,0.749214,0.749214,0.7492140000000003,2.3551386880256624e-16,62.8,62.8,62.8,62.8,62.8,0.0,30.070000000000014,30.069999999999993,30.070000000000007,30.070000000000007,30.070000000000014,8.881784197001252e-15,73.81,62.12,68.805,69.64500000000001,62.12,4.460843530096076
1 -> 2,0.7492140000000003,0.7492139999999997,0.749214,0.749214,0.7492140000000003,2.3551386880256624e-16,62.8,62.8,62.8,62.8,62.8,0.0,30.070000000000014,30.069999999999993,30.070000000000007,30.070000000000007,30.070000000000014,8.881784197001252e-15,75.19,73.85,74.2975,74.075,73.85,0.5286480398147714
1 -> 2,0.7492140000000003,0.7492139999999997,0.749214,0.749214,0.7492140000000003,2.3551386880256624e-16,62.8,62.8,62.8,62.8,62.8,0.0,30.070000000000014,30.069999999999993,30.070000000000007,30.070000000000007,30.070000000000014,8.881784197001252e-15,75.19,73.85,74.2975,74.075,73.85,0.5286480398147714
1 -> 2,0.7556150000000005,0.755615,0.7556150000000003,0.7556150000000004,0.7556150000000005,1.9229626863835638e-16,62.5,62.5,62.5,62.5,62.5,0.0,30.090000000000014,30.089999999999986,30.09,30.090000000000003,30.090000000000014,1.3411200035432724e-14,80.63,77.3,79.4875,80.00999999999999,77.3,1.3539456229849105
1 -> 2,0.7556150000000005,0.755615,0.7556150000000003,0.7556150000000004,0.7556150000000005,1.9229626863835638e-16,62.5,62.5,62.5,62.5,62.5,0.0,30.090000000000014,30.089999999999986,30.09,30.090000000000003,30.090000000000014,1.3411200035432724e-14,80.63,77.3,79.4875,80.00999999999999,77.3,1.3539456229849105
1 -> 2,0.7556150000000005,0.755615,0.7556150000000003,0.7556150000000004,0.7556150000000005,1.9229626863835638e-16,62.5,62.5,62.5,62.5,62.5,0.0,30.090000000000014,30.089999999999986,30.09,30.090000000000003,30.090000000000014,1.3411200035432724e-14,82.51,79.44,80.5225,80.07,79.44,1.187147316048015
1 -> 2,0.7556150000000005,0.755615,0.7556150000000003,0.7556150000000004,0.7556150000000005,1.9229626863835638e-16,62.5,62.5,62.5,62.5,62.5,0.0,30.090000000000014,30.089999999999986,30.09,30.090000000000003,30.090000000000014,1.3411200035432724e-14,82.51,79.44,80.5225,80.07,79.44,1.187147316048015
1 -> 2,0.7556150000000005,0.755615,0.7556150000000003,0.7556150000000004,0.7556150000000005,1.9229626863835638e-16,62.5,62.5,62.5,62.5,62.5,0.0,30.090000000000014,30.089999999999986,30.09,30.090000000000003,30.090000000000014,1.3411200035432724e-14,86.26,79.34,83.8,84.8,79.34,2.649952829768861
1 -> 2,0.7556150000000005,0.755615,0.7556150000000003,0.7556150000000004,0.7556150000000005,1.9229626863835638e-16,62.5,62.5,62.5,62.5,62.5,0.0,30.090000000000014,30.089999999999986,30.09,30.090000000000003,30.090000000000014,1.3411200035432724e-14,86.26,79.34,83.8,84.8,79.34,2.649952829768861
1 -> 2,0.7556150000000005,0.755615,0.7556150000000003,0.7556150000000004,0.7556150000000005,1.9229626863835638e-16,62.5,62.5,62.5,62.5,62.5,0.0,30.090000000000014,30.089999999999986,30.09,30.090000000000003,30.090000000000014,1.3411200035432724e-14,71.59,52.68,61.005,59.875,52.68,7.190585859302426
1 -> 2,0.7556150000000005,0.755615,0.7556150000000003,0.7556150000000004,0.7556150000000005,1.9229626863835638e-16,62.5,62.5,62.5,62.5,62.5,0.0,30.090000000000014,30.089999999999986,30.09,30.090000000000003,30.090000000000014,1.3411200035432724e-14,71.59,52.68,61.005,59.875,52.68,7.190585859302426
1 -> 2,0.7556150000000005,0.755615,0.7556150000000003,0.7556150000000004,0.7556150000000005,1.9229626863835638e-16,62.5,62.5,62.5,62.5,62.5,0.0,30.090000000000014,30.089999999999986,30.09,30.090000000000003,30.090000000000014,1.3411200035432724e-14,55.24,51.88,53.6725,53.785,51.88,1.3101407367149518
1 -> 2,0.7556150000000005,0.755615,0.7556150000000003,0.7556150000000004,0.7556150000000005,1.9229626863835638e-16,62.5,62.5,62.5,62.5,62.5,0.0,30.090000000000014,30.089999999999986,30.09,30.090000000000003,30.090000000000014,1.3411200035432724e-14,55.24,51.88,53.6725,53.785,51.88,1.3101407367149518
1 -> 2,0.7556150000000005,0.755615,0.7556150000000003,0.7556150000000004,0.7556150000000005,1.9229626863835638e-16,62.5,62.5,62.5,62.5,62.5,0.0,30.090000000000014,30.089999999999986,30.09,30.090000000000003,30.090000000000014,1.3411200035432724e-14,54.6,46.45,50.974999999999994,51.425,46.45,3.0697434746245484
1 -> 2,0.7556150000000005,0.755615,0.7556150000000003,0.7556150000000004,0.7556150000000005,1.9229626863835638e-16,62.5,62.5,62.5,62.5,62.5,0.0,30.090000000000014,30.089999999999986,30.09,30.090000000000003,30.090000000000014,1.3411200035432724e-14,54.6,46.45,50.974999999999994,51.425,46.45,3.0697434746245484
1 -> 2,0.7556150000000005,0.755615,0.7556150000000003,0.7556150000000004,0.7556150000000005,1.9229626863835638e-16,62.5,62.5,62.5,62.5,62.5,0.0,30.090000000000014,30.089999999999986,30.09,30.090000000000003,30.090000000000014,1.3411200035432724e-14,41.52,17.93,30.265,30.805,17.93,8.845175238512804
1 -> 2,0.7556150000000005,0.755615,0.7556150000000003,0.7556150000000004,0.7556150000000005,1.9229626863835638e-16,62.5,62.5,62.5,62.5,62.5,0.0,30.090000000000014,30.089999999999986,30.09,30.090000000000003,30.090000000000014,1.3411200035432724e-14,41.52,17.93,30.265,30.805,17.93,8.845175238512804
1 -> 2,0.7556150000000005,0.755615,0.7556150000000003,0.7556150000000004,0.7556150000000005,1.9229626863835638e-16,62.5,62.5,62.5,62.5,62.5,0.0,30.090000000000014,30.089999999999986,30.09,30.090000000000003,30.090000000000014,1.3411200035432724e-14,10.05,1.8,4.550000000000001,3.1750000000000003,1.8,3.354094512681478
1 -> 2,0.7556150000000005,0.755615,0.7556150000000003,0.7556150000000004,0.7556150000000005,1.9229626863835638e-16,62.5,62.5,62.5,62.5,62.5,0.0,30.090000000000014,30.089999999999986,30.09,30.090000000000003,30.090000000000014,1.3411200035432724e-14,10.05,1.8,4.550000000000001,3.1750000000000003,1.8,3.354094512681478
1 -> 2,0.7684180000000005,0.7684179999999999,0.7684180000000003,0.7684180000000004,0.7684180000000005,2.2887833992611187e-16,62.5,62.5,62.5,62.5,62.5,0.0,30.090000000000014,30.089999999999986,30.09,30.090000000000003,30.090000000000014,1.3411200035432724e-14,4.96,3.07,4.272499999999999,4.529999999999999,3.07,0.7229237511660549
1 -> 2,0.7684180000000005,0.7684179999999999,0.7684180000000003,0.7684180000000004,0.7684180000000005,2.2887833992611187e-16,62.5,62.5,62.5,62.5,62.5,0.0,30.090000000000014,30.089999999999986,30.09,30.090000000000003,30.090000000000014,1.3411200035432724e-14,4.96,3.07,4.272499999999999,4.529999999999999,3.07,0.7229237511660549
1 -> 2,0.7684180000000005,0.7684179999999999,0.7684180000000003,0.7684180000000004,0.7684180000000005,2.2887833992611187e-16,62.5,62.5,62.5,62.5,62.5,0.0,30.090000000000014,30.089999999999986,30.09,30.090000000000003,30.090000000000014,1.3411200035432724e-14,3.89,-1.39,1.6700000000000002,2.09,-1.39,1.987460691435179
1 -> 2,0.7684180000000005,0.7684179999999999,0.7684180000000003,0.7684180000000004,0.7684180000000005,2.2887833992611187e-16,62.5,62.5,62.5,62.5,62.5,0.0,30.090000000000014,30.089999999999986,30.09,30.090000000000003,30.090000000000014,1.3411200035432724e-14,3.89,-1.39,1.6700000000000002,2.09,-1.39,1.987460691435179
1 -> 2,0.7684180000000005,0.7684179999999999,0.7684180000000003,0.7684180000000004,0.7684180000000005,2.2887833992611187e-16,62.5,62.5,62.5,62.5,62.5,0.0,30.090000000000014,30.089999999999986,30.09,30.090000000000003,30.090000000000014,1.3411200035432724e-14,-6.08,-32.44,-18.4675,-17.675,-32.44,9.890033809345647
1 -> 2,0.7684180000000005,0.7684179999999999,0.7684180000000003,0.7684180000000004,0.7684180000000005,2.2887833992611187e-16,62.5,62.5,62.5,62.5,62.5,0.0,30.090000000000014,30.089999999999986,30.09,30.090000000000003,30.090000000000014,1.3411200035432724e-14,-6.08,-32.44,-18.4675,-17.675,-32.44,9.890033809345647
1 -> 2,0.7684180000000005,0.7684179999999999,0.7684180000000003,0.7684180000000004,0.7684180000000005,2.2887833992611187e-16,62.5,62.5,62.5,62.5,62.5,0.0,30.090000000000014,30.089999999999986,30.09,30.090000000000003,30.090000000000014,1.3411200035432724e-14,-42.48,-60.01,-52.655,-54.065,-60.01,6.706416703426654
1 -> 2,0.7684180000000005,0.7684179999999999,0.7684180000000003,0.7684180000000004,0.7684180000000005,2.2887833992611187e-16,62.5,62.5,62.5,62.5,62.5,0.0,30.090000000000014,30.089999999999986,30.09,30.090000000000003,30.090000000000014,1.3411200035432724e-14,-42.48,-60.01,-52.655,-54.065,-60.01,6.706416703426654
1 -> 2,0.7696980000000004,0.7696979999999998,0.7696980000000002,0.7696980000000002,0.7696980000000004,3.188872858294072e-16,62.5,62.5,62.5,62.5,62.5,0.0,30.090000000000014,30.089999999999986,30.09,30.090000000000003,30.090000000000014,1.3411200035432724e-14,-48.51,-59.71,-54.365,-54.620000000000005,-59.71,4.251802558915455
1 -> 2,0.7696980000000004,0.7696979999999998,0.7696980000000002,0.7696980000000002,0.7696980000000004,3.188872858294072e-16,62.5,62.5,62.5,62.5,62.5,0.0,30.090000000000014,30.089999999999986,30.09,30.090000000000003,30.090000000000014,1.3411200035432724e-14,-48.51,-59.71,-54.365,-54.620000000000005,-59.71,4.251802558915455
1 -> 2,0.7696980000000004,0.7696979999999998,0.7696980000000002,0.7696980000000002,0.7696980000000004,3.188872858294072e-16,62.5,62.5,62.5,62.5,62.5,0.0,30.090000000000014,30.089999999999986,30.09,30.090000000000003,30.090000000000014,1.3411200035432724e-14,-46.88,-66.36,-54.515,-52.41,-66.36,7.574696363551477
1 -> 2,0.7696980000000004,0.7696979999999998,0.7696980000000002,0.7696980000000002,0.7696980000000004,3.188872858294072e-16,62.5,62.5,62.5,62.5,62.5,0.0,30.090000000000014,30.089999999999986,30.09,30.090000000000003,30.090000000000014,1.3411200035432724e-14,-46.88,-66.36,-54.515,-52.41,-66.36,7.574696363551477
1 -> 2,0.7696980000000004,0.7696979999999998,0.7696980000000002,0.7696980000000002,0.7696980000000004,3.188872858294072e-16,62.5,62.5,62.5,62.5,62.5,0.0,30.090000000000014,30.089999999999986,30.09,30.090000000000003,30.090000000000014,1.3411200035432724e-14,-79.69,-119.27,-100.16,-100.84,-119.27,14.819207131287422
1 -> 2,0.7696980000000004,0.7696979999999998,0.7696980000000002,0.7696980000000002,0.7696980000000004,3.188872858294072e-16,62.5,62.5,62.5,62.5,62.5,0.0,30.090000000000014,30.089999999999986,30.09,30.090000000000003,30.090000000000014,1.3411200035432724e-14,-79.69,-119.27,-100.16,-100.84,-119.27,14.819207131287422
1 -> 2,0.7696980000000004,0.7696979999999998,0.7696980000000002,0.7696980000000002,0.7696980000000004,3.188872858294072e-16,62.5,62.5,62.5,62.5,62.5,0.0,30.090000000000014,30.089999999999986,30.09,30.090000000000003,30.090000000000014,1.3411200035432724e-14,-127.75,-133.47,-131.22500000000002,-131.84,-133.47,2.163163193104026
1 -> 2,0.7696980000000004,0.7696979999999998,0.7696980000000002,0.7696980000000002,0.7696980000000004,3.188872858294072e-16,62.5,62.5,62.5,62.5,62.5,0.0,30.090000000000014,30.089999999999986,30.09,30.090000000000003,30.090000000000014,1.3411200035432724e-14,-127.75,-133.47,-131.22500000000002,-131.84,-133.47,2.163163193104026
1 -> 2,0.7773800000000004,0.7773799999999996,0.7773800000000001,0.7773800000000002,0.7773800000000004,3.4219371797089426e-16,62.14,62.14,62.14,62.14,62.14,0.0,30.070000000000014,30.069999999999993,30.070000000000007,30.070000000000007,30.070000000000014,8.881784197001252e-15,-103.97,-126.53,-115.92250000000001,-116.595,-126.53,8.424492195378901
1 -> 2,0.7773800000000004,0.7773799999999996,0.7773800000000001,0.7773800000000002,0.7773800000000004,3.4219371797089426e-16,62.14,62.14,62.14,62.14,62.14,0.0,30.070000000000014,30.069999999999993,30.070000000000007,30.070000000000007,30.070000000000014,8.881784197001252e-15,-103.97,-126.53,-115.92250000000001,-116.595,-126.53,8.424492195378901
1 -> 2,0.7773800000000004,0.7773799999999996,0.7773800000000001,0.7773800000000002,0.7773800000000004,3.4219371797089426e-16,62.14,62.14,62.14,62.14,62.14,0.0,30.070000000000014,30.069999999999993,30.070000000000007,30.070000000000007,30.070000000000014,8.881784197001252e-15,-51.16,-93.0,-72.32,-72.56,-93.0,15.66460979405488
1 -> 2,0.7773800000000004,0.7773799999999996,0.7773800000000001,0.7773800000000002,0.7773800000000004,3.4219371797089426e-16,62.14,62.14,62.14,62.14,62.14,0.0,30.070000000000014,30.069999999999993,30.070000000000007,30.070000000000007,30.070000000000014,8.881784197001252e-15,-51.16,-93.0,-72.32,-72.56,-93.0,15.66460979405488
1 -> 2,0.7773800000000004,0.7773799999999996,0.7773800000000001,0.7773800000000002,0.7773800000000004,3.4219371797089426e-16,62.14,62.14,62.14,62.14,62.14,0.0,30.070000000000014,30.069999999999993,30.070000000000007,30.070000000000007,30.070000000000014,8.881784197001252e-15,-29.37,-39.67,-32.74250000000001,-30.965,-39.67,4.168916975666463
1 -> 2,0.7773800000000004,0.7773799999999996,0.7773800000000001,0.7773800000000002,0.7773800000000004,3.4219371797089426e-16,62.14,62.14,62.14,62.14,62.14,0.0,30.070000000000014,30.069999999999993,30.070000000000007,30.070000000000007,30.070000000000014,8.881784197001252e-15,-29.37,-39.67,-32.74250000000001,-30.965,-39.67,4.168916975666463
1 -> 2,0.7773800000000004,0.7773799999999996,0.7773800000000001,0.7773800000000002,0.7773800000000004,3.4219371797089426e-16,62.14,62.14,62.14,62.14,62.14,0.0,30.070000000000014,30.069999999999993,30.070000000000007,30.070000000000007,30.070000000000014,8.881784197001252e-15,-31.17,-34.47,-33.035,-33.25,-34.47,1.2399697576957256
1 -> 2,0.7773800000000004,0.7773799999999996,0.7773800000000001,0.7773800000000002,0.7773800000000004,3.4219371797089426e-16,62.14,62.14,62.14,62.14,62.14,0.0,30.070000000000014,30.069999999999993,30.070000000000007,30.070000000000007,30.070000000000014,8.881784197001252e-15,-31.17,-34.47,-33.035,-33.25,-34.47,1.2399697576957256
1 -> 2,0.7735390000000004,0.773539,0.7735390000000002,0.7735390000000002,0.7735390000000004,2.0014830212433605e-16,62.14,62.14,62.14,62.14,62.14,0.0,30.070000000000014,30.069999999999993,30.070000000000007,30.070000000000007,30.070000000000014,8.881784197001252e-15,-32.18,-35.79,-34.6,-35.215,-35.79,1.4168097966911437
1 -> 2,0.7735390000000004,0.773539,0.7735390000000002,0.7735390000000002,0.7735390000000004,2.0014830212433605e-16,62.14,62.14,62.14,62.14,62.14,0.0,30.070000000000014,30.069999999999993,30.070000000000007,30.070000000000007,30.070000000000014,8.881784197001252e-15,-32.18,-35.79,-34.6,-35.215,-35.79,1.4168097966911437
1 -> 2,0.7735390000000004,0.773539,0.7735390000000002,0.7735390000000002,0.7735390000000004,2.0014830212433605e-16,62.14,62.14,62.14,62.14,62.14,0.0,30.070000000000014,30.069999999999993,30.070000000000007,30.070000000000007,30.070000000000014,8.881784197001252e-15,2.76,-25.95,-11.65,-11.705,-25.95,10.787708283041399
1 -> 2,0.7735390000000004,0.773539,0.7735390000000002,0.7735390000000002,0.7735390000000004,2.0014830212433605e-16,62.14,62.14,62.14,62.14,62.14,0.0,30.070000000000014,30.069999999999993,30.070000000000007,30.070000000000007,30.070000000000014,8.881784197001252e-15,2.76,-25.95,-11.65,-11.705,-25.95,10.787708283041399
1 -> 2,0.7735390000000004,0.773539,0.7735390000000002,0.7735390000000002,0.7735390000000004,2.0014830212433605e-16,62.14,62.14,62.14,62.14,62.14,0.0,30.070000000000014,30.069999999999993,30.070000000000007,30.070000000000007,30.070000000000014,8.881784197001252e-15,10.39,0.64,6.795,8.075,0.64,3.716695440845268
1 -> 2,0.7735390000000004,0.773539,0.7735390000000002,0.7735390000000002,0.7735390000000004,2.0014830212433605e-16,62.14,62.14,62.14,62.14,62.14,0.0,30.070000000000014,30.069999999999993,30.070000000000007,30.070000000000007,30.070000000000014,8.881784197001252e-15,10.39,0.64,6.795,8.075,0.64,3.716695440845268
1 -> 2,0.7735390000000004,0.773539,0.7735390000000002,0.7735390000000002,0.7735390000000004,2.0014830212433605e-16,62.14,62.14,62.14,62.14,62.14,0.0,30.070000000000014,30.069999999999993,30.070000000000007,30.070000000000007,30.070000000000014,8.881784197001252e-15,-7.83,-25.42,-17.905,-19.185000000000002,-25.42,6.720567312362848
1 -> 2,0.7735390000000004,0.773539,0.7735390000000002,0.7735390000000002,0.7735390000000004,2.0014830212433605e-16,62.14,62.14,62.14,62.14,62.14,0.0,30.070000000000014,30.069999999999993,30.070000000000007,30.070000000000007,30.070000000000014,8.881784197001252e-15,-7.83,-25.42,-17.905,-19.185000000000002,-25.42,6.720567312362848
1 -> 2,0.7825010000000004,0.7825009999999996,0.7825010000000001,0.7825010000000001,0.7825010000000004,3.805652793121308e-16,62.14,62.14,62.14,62.14,62.14,0.0,30.070000000000014,30.069999999999993,30.070000000000007,30.070000000000007,30.070000000000014,8.881784197001252e-15,-13.32,-25.12,-19.5175,-19.814999999999998,-25.12,4.471142890805438
1 -> 2,0.7825010000000004,0.7825009999999996,0.7825010000000001,0.7825010000000001,0.7825010000000004,3.805652793121308e-16,62.14,62.14,62.14,62.14,62.14,0.0,30.070000000000014,30.069999999999993,30.070000000000007,30.070000000000007,30.070000000000014,8.881784197001252e-15,-13.32,-25.12,-19.5175,-19.814999999999998,-25.12,4.471142890805438
1 -> 2,0.7825010000000004,0.7825009999999996,0.7825010000000001,0.7825010000000001,0.7825010000000004,3.805652793121308e-16,62.14,62.14,62.14,62.14,62.14,0.0,30.070000000000014,30.069999999999993,30.070000000000007,30.070000000000007,30.070000000000014,8.881784197001252e-15,-10.08,-13.13,-11.280000000000001,-10.955,-13.13,1.149456393257265
1 -> 2,0.7825010000000004,0.7825009999999996,0.7825010000000001,0.7825010000000001,0.7825010000000004,3.805652793121308e-16,62.14,62.14,62.14,62.14,62.14,0.0,30.070000000000014,30.069999999999993,30.070000000000007,30.070000000000007,30.070000000000014,8.881784197001252e-15,-10.08,-13.13,-11.280000000000001,-10.955,-13.13,1.149456393257265
1 -> 2,0.7825010000000004,0.7825009999999996,0.7825010000000001,0.7825010000000001,0.7825010000000004,3.805652793121308e-16,62.14,62.14,62.14,62.14,62.14,0.0,30.070000000000014,30.069999999999993,30.070000000000007,30.070000000000007,30.070000000000014,8.881784197001252e-15,-9.6,-14.37,-12.6,-13.215,-14.37,1.9057413255738564
1 -> 2,0.7825010000000004,0.7825009999999996,0.7825010000000001,0.7825010000000001,0.7825010000000004,3.805652793121308e-16,62.14,62.14,62.14,62.14,62.14,0.0,30.070000000000014,30.069999999999993,30.070000000000007,30.070000000000007,30.070000000000014,8.881784197001252e-15,-9.6,-14.37,-12.6,-13.215,-14.37,1.9057413255738564
1 -> 2,0.7825010000000004,0.7825009999999996,0.7825010000000001,0.7825010000000001,0.7825010000000004,3.805652793121308e-16,62.14,62.14,62.14,62.14,62.14,0.0,30.070000000000014,30.069999999999993,30.070000000000007,30.070000000000007,30.070000000000014,8.881784197001252e-15,-6.33,-13.36,-8.7675,-7.69,-13.36,2.734788611574942
1 -> 2,0.7825010000000004,0.7825009999999996,0.7825010000000001,0.7825010000000001,0.7825010000000004,3.805652793121308e-16,62.14,62.14,62.14,62.14,62.14,0.0,30.070000000000014,30.069999999999993,30.070000000000007,30.070000000000007,30.070000000000014,8.881784197001252e-15,-6.33,-13.36,-8.7675,-7.69,-13.36,2.734788611574942
1 -> 2,0.7825010000000004,0.7825009999999996,0.7825010000000001,0.7825010000000001,0.7825010000000004,3.805652793121308e-16,62.14,62.14,62.14,62.14,62.14,0.0,30.070000000000014,30.069999999999993,30.070000000000007,30.070000000000007,30.070000000000014,8.881784197001252e-15,-21.5,-49.21,-35.8875,-36.42,-49.21,10.41944666237128
1 -> 2,0.7825010000000004,0.7825009999999996,0.7825010000000001,0.7825010000000001,0.7825010000000004,3.805652793121308e-16,62.14,62.14,62.14,62.14,62.14,0.0,30.070000000000014,30.069999999999993,30.070000000000007,30.070000000000007,30.070000000000014,8.881784197001252e-15,-21.5,-49.21,-35.8875,-36.42,-49.21,10.41944666237128
1 -> 2,0.7825010000000004,0.7825009999999996,0.7825010000000001,0.7825010000000001,0.7825010000000004,3.805652793121308e-16,62.14,62.14,62.14,62.14,62.14,0.0,30.070000000000014,30.069999999999993,30.070000000000007,30.070000000000007,30.070000000000014,8.881784197001252e-15,-51.84,-54.5,-53.29,-53.41,-54.5,0.9585666382677823
1 -> 2,0.7825010000000004,0.7825009999999996,0.7825010000000001,0.7825010000000001,0.7825010000000004,3.805652793121308e-16,62.14,62.14,62.14,62.14,62.14,0.0,30.070000000000014,30.069999999999993,30.070000000000007,30.070000000000007,30.070000000000014,8.881784197001252e-15,-51.84,-54.5,-53.29,-53.41,-54.5,0.9585666382677823
1 -> 2,0.7825010000000004,0.7825009999999996,0.7825010000000001,0.7825010000000001,0.7825010000000004,3.805652793121308e-16,62.14,62.14,62.14,62.14,62.14,0.0,30.070000000000014,30.069999999999993,30.070000000000007,30.070000000000007,30.070000000000014,8.881784197001252e-15,-52.27,-64.89,-58.075,-57.57,-64.89,4.792861879921013
1 -> 2,0.7825010000000004,0.7825009999999996,0.7825010000000001,0.7825010000000001,0.7825010000000004,3.805652793121308e-16,62.14,62.14,62.14,62.14,62.14,0.0,30.070000000000014,30.069999999999993,30.070000000000007,30.070000000000007,30.070000000000014,8.881784197001252e-15,-52.27,-64.89,-58.075,-57.57,-64.89,4.792861879921013
1 -> 2,0.7825010000000004,0.7825009999999996,0.7825010000000001,0.7825010000000001,0.7825010000000004,3.805652793121308e-16,62.14,62.14,62.14,62.14,62.14,0.0,30.070000000000014,30.069999999999993,30.070000000000007,30.070000000000007,30.070000000000014,8.881784197001252e-15,-66.47,-69.64,-68.315,-68.57499999999999,-69.64,1.1564276890493415
1 -> 2,0.7825010000000004,0.7825009999999996,0.7825010000000001,0.7825010000000001,0.7825010000000004,3.805652793121308e-16,62.14,62.14,62.14,62.14,62.14,0.0,30.070000000000014,30.069999999999993,30.070000000000007,30.070000000000007,30.070000000000014,8.881784197001252e-15,-66.47,-69.64,-68.315,-68.57499999999999,-69.64,1.1564276890493415
1 -> 2,0.7876220000000005,0.7876219999999998,0.7876220000000002,0.7876220000000002,0.7876219999999998,3.3306690738754696e-16,62.12,62.12,62.12,62.12,62.12,0.0,30.070000000000014,30.069999999999993,30.070000000000007,30.070000000000007,30.070000000000014,8.881784197001252e-15,-54.32,-63.63,-59.025,-59.075,-63.63,3.470738394059685
1 -> 2,0.7876220000000005,0.7876219999999998,0.7876220000000002,0.7876220000000002,0.7876219999999998,3.3306690738754696e-16,62.12,62.12,62.12,62.12,62.12,0.0,30.070000000000014,30.069999999999993,30.070000000000007,30.070000000000007,30.070000000000014,8.881784197001252e-15,-54.32,-63.63,-59.025,-59.075,-63.63,3.470738394059685
1 -> 2,0.7876220000000005,0.7876219999999998,0.7876220000000002,0.7876220000000002,0.7876219999999998,3.3306690738754696e-16,62.12,62.12,62.12,62.12,62.12,0.0,30.070000000000014,30.069999999999993,30.070000000000007,30.070000000000007,30.070000000000014,8.881784197001252e-15,-46.22,-51.25,-48.315,-47.894999999999996,-51.25,1.91815666721986
1 -> 2,0.7876220000000005,0.7876219999999998,0.7876220000000002,0.7876220000000002,0.7876219999999998,3.3306690738754696e-16,62.12,62.12,62.12,62.12,62.12,0.0,30.070000000000014,30.069999999999993,30.070000000000007,30.070000000000007,30.070000000000014,8.881784197001252e-15,-46.22,-51.25,-48.315,-47.894999999999996,-51.25,1.91815666721986
1 -> 2,0.7876220000000005,0.7876219999999998,0.7876220000000002,0.7876220000000002,0.7876219999999998,3.3306690738754696e-16,62.12,62.12,62.12,62.12,62.12,0.0,30.070000000000014,30.069999999999993,30.070000000000007,30.070000000000007,30.070000000000014,8.881784197001252e-15,-37.78,-45.54,-42.29,-42.92,-45.54,2.9612666208904583
1 -> 2,0.7876220000000005,0.7876219999999998,0.7876220000000002,0.7876220000000002,0.7876219999999998,3.3306690738754696e-16,62.12,62.12,62.12,62.12,62.12,0.0,30.070000000000014,30.069999999999993,30.070000000000007,30.070000000000007,30.070000000000014,8.881784197001252e-15,-37.78,-45.54,-42.29,-42.92,-45.54,2.9612666208904583
1 -> 2,0.7876220000000005,0.7876219999999998,0.7876220000000002,0.7876220000000002,0.7876219999999998,3.3306690738754696e-16,62.12,62.12,62.12,62.12,62.12,0.0,30.070000000000014,30.069999999999993,30.070000000000007,30.070000000000007,30.070000000000014,8.881784197001252e-15,-25.53,-33.39,-28.82,-28.18,-33.39,2.9983495460002656
1 -> 2,0.7876220000000005,0.7876219999999998,0.7876220000000002,0.7876220000000002,0.7876219999999998,3.3306690738754696e-16,62.12,62.12,62.12,62.12,62.12,0.0,30.070000000000014,30.069999999999993,30.070000000000007,30.070000000000007,30.070000000000014,8.881784197001252e-15,-25.53,-33.39,-28.82,-28.18,-33.39,2.9983495460002656
1 -> 2,0.7799400000000004,0.7799399999999996,0.7799400000000001,0.7799400000000003,0.7799400000000004,3.236828524569469e-16,62.12,62.12,62.12,62.12,62.12,0.0,30.070000000000014,30.069999999999993,30.070000000000007,30.070000000000007,30.070000000000014,8.881784197001252e-15,-16.36,-24.68,-21.169999999999998,-21.82,-24.68,3.171009303045325
1 -> 2,0.7799400000000004,0.7799399999999996,0.7799400000000001,0.7799400000000003,0.7799400000000004,3.236828524569469e-16,62.12,62.12,62.12,62.12,62.12,0.0,30.070000000000014,30.069999999999993,30.070000000000007,30.070000000000007,30.070000000000014,8.881784197001252e-15,-16.36,-24.68,-21.169999999999998,-21.82,-24.68,3.171009303045325
1 -> 2,0.7799400000000004,0.7799399999999996,0.7799400000000001,0.7799400000000003,0.7799400000000004,3.236828524569469e-16,62.12,62.12,62.12,62.12,62.12,0.0,30.070000000000014,30.069999999999993,30.070000000000007,30.070000000000007,30.070000000000014,8.881784197001252e-15,-5.21,-11.96,-7.8775,-7.17,-11.96,2.612100447915432
1 -> 2,0.7799400000000004,0.7799399999999996,0.7799400000000001,0.7799400000000003,0.7799400000000004,3.236828524569469e-16,62.12,62.12,62.12,62.12,62.12,0.0,30.070000000000014,30.069999999999993,30.070000000000007,30.070000000000007,30.070000000000014,8.881784197001252e-15,-5.21,-11.96,-7.8775,-7.17,-11.96,2.612100447915432
1 -> 2,0.7799400000000004,0.7799399999999996,0.7799400000000001,0.7799400000000003,0.7799400000000004,3.236828524569469e-16,62.12,62.12,62.12,62.12,62.12,0.0,30.070000000000014,30.069999999999993,30.070000000000007,30.070000000000007,30.070000000000014,8.881784197001252e-15,-5.17,-6.26,-5.5975,-5.48,-6.26,0.4132417573285643
1 -> 2,0.7799400000000004,0.7799399999999996,0.7799400000000001,0.7799400000000003,0.7799400000000004,3.236828524569469e-16,62.12,62.12,62.12,62.12,62.12,0.0,30.070000000000014,30.069999999999993,30.070000000000007,30.070000000000007,30.070000000000014,8.881784197001252e-15,-5.17,-6.26,-5.5975,-5.48,-6.26,0.4132417573285643
1 -> 2,0.7799400000000004,0.7799399999999996,0.7799400000000001,0.7799400000000003,0.7799400000000004,3.236828524569469e-16,62.12,62.12,62.12,62.12,62.12,0.0,30.070000000000014,30.069999999999993,30.070000000000007,30.070000000000007,30.070000000000014,8.881784197001252e-15,-7.69,-11.78,-10.205,-10.675,-11.78,1.6524300287758025
1 -> 2,0.7799400000000004,0.7799399999999996,0.7799400000000001,0.7799400000000003,0.7799400000000004,3.236828524569469e-16,62.12,62.12,62.12,62.12,62.12,0.0,30.070000000000014,30.069999999999993,30.070000000000007,30.070000000000007,30.070000000000014,8.881784197001252e-15,-7.69,-11.78,-10.205,-10.675,-11.78,1.6524300287758025
1 -> 2,0.7812200000000005,0.7812199999999998,0.7812200000000002,0.7812200000000002,0.7812200000000005,2.9373740229761033e-16,62.12,62.12,62.12,62.12,62.12,0.0,30.070000000000014,30.069999999999993,30.070000000000007,30.070000000000007,30.070000000000014,8.881784197001252e-15,11.84,-9.16,0.8325,0.3250000000000002,-9.16,7.920616690005899
1 -> 2,0.7812200000000005,0.7812199999999998,0.7812200000000002,0.7812200000000002,0.7812200000000005,2.9373740229761033e-16,62.12,62.12,62.12,62.12,62.12,0.0,30.070000000000014,30.069999999999993,30.070000000000007,30.070000000000007,30.070000000000014,8.881784197001252e-15,11.84,-9.16,0.8325,0.3250000000000002,-9.16,7.920616690005899
1 -> 2,0.7812200000000005,0.7812199999999998,0.7812200000000002,0.7812200000000002,0.7812200000000005,2.9373740229761033e-16,62.12,62.12,62.12,62.12,62.12,0.0,30.070000000000014,30.069999999999993,30.070000000000007,30.070000000000007,30.070000000000014,8.881784197001252e-15,19.43,13.56,17.0425,17.59,13.56,2.150132263373581
1 -> 2,0.7812200000000005,0.7812199999999998,0.7812200000000002,0.7812200000000002,0.7812200000000005,2.9373740229761033e-16,62.12,62.12,62.12,62.12,62.12,0.0,30.070000000000014,30.069999999999993,30.070000000000007,30.070000000000007,30.070000000000014,8.881784197001252e-15,19.43,13.56,17.0425,17.59,13.56,2.150132263373581
1 -> 2,0.7812200000000005,0.7812199999999998,0.7812200000000002,0.7812200000000002,0.7812200000000005,2.9373740229761033e-16,62.12,62.12,62.12,62.12,62.12,0.0,30.070000000000014,30.069999999999993,30.070000000000007,30.070000000000007,30.070000000000014,8.881784197001252e-15,8.64,1.49,4.3,3.535,1.49,2.758323766347961
1 -> 2,0.7812200000000005,0.7812199999999998,0.7812200000000002,0.7812200000000002,0.7812200000000005,2.9373740229761033e-16,62.12,62.12,62.12,62.12,62.12,0.0,30.070000000000014,30.069999999999993,30.070000000000007,30.070000000000007,30.070000000000014,8.881784197001252e-15,8.64,1.49,4.3,3.535,1.49,2.758323766347961
1 -> 2,0.7812200000000005,0.7812199999999998,0.7812200000000002,0.7812200000000002,0.7812200000000005,2.9373740229761033e-16,62.12,62.12,62.12,62.12,62.12,0.0,30.070000000000014,30.069999999999993,30.070000000000007,30.070000000000007,30.070000000000014,8.881784197001252e-15,0.71,-7.18,-2.8925,-2.55,-7.18,3.001477761037053
1 -> 2,0.7812200000000005,0.7812199999999998,0.7812200000000002,0.7812200000000002,0.7812200000000005,2.9373740229761033e-16,62.12,62.12,62.12,62.12,62.12,0.0,30.070000000000014,30.069999999999993,30.070000000000007,30.070000000000007,30.070000000000014,8.881784197001252e-15,0.71,-7.18,-2.8925,-2.55,-7.18,3.001477761037053
1 -> 2,0.7748190000000005,0.7748189999999998,0.7748190000000001,0.7748190000000001,0.7748190000000005,3.090730095650652e-16,62.12,62.12,62.12,62.12,62.12,0.0,30.070000000000014,30.069999999999993,30.070000000000007,30.070000000000007,30.070000000000014,8.881784197001252e-15,13.79,-8.49,0.2524999999999995,-2.145,-8.49,8.655814158702809
1 -> 2,0.7748190000000005,0.7748189999999998,0.7748190000000001,0.7748190000000001,0.7748190000000005,3.090730095650652e-16,62.12,62.12,62.12,62.12,62.12,0.0,30.070000000000014,30.069999999999993,30.070000000000007,30.070000000000007,30.070000000000014,8.881784197001252e-15,13.79,-8.49,0.2524999999999995,-2.145,-8.49,8.655814158702809
1 -> 2,0.7748190000000005,0.7748189999999998,0.7748190000000001,0.7748190000000001,0.7748190000000005,3.090730095650652e-16,62.12,62.12,62.12,62.12,62.12,0.0,30.070000000000014,30.069999999999993,30.070000000000007,30.070000000000007,30.070000000000014,8.881784197001252e-15,68.4,28.81,49.86000000000001,51.115,28.81,14.861179293716903
1 -> 2,0.7748190000000005,0.7748189999999998,0.7748190000000001,0.7748190000000001,0.7748190000000005,3.090730095650652e-16,62.12,62.12,62.12,62.12,62.12,0.0,30.070000000000014,30.069999999999993,30.070000000000007,30.070000000000007,30.070000000000014,8.881784197001252e-15,68.4,28.81,49.86000000000001,51.115,28.81,14.861179293716903
1 -> 2,0.7748190000000005,0.7748189999999998,0.7748190000000001,0.7748190000000001,0.7748190000000005,3.090730095650652e-16,62.12,62.12,62.12,62.12,62.12,0.0,30.070000000000014,30.069999999999993,30.070000000000007,30.070000000000007,30.070000000000014,8.881784197001252e-15,81.94,75.33,79.41499999999999,80.195,75.33,2.5527289319471427
1 -> 2,0.7748190000000005,0.7748189999999998,0.7748190000000001,0.7748190000000001,0.7748190000000005,3.090730095650652e-16,62.12,62.12,62.12,62.12,62.12,0.0,30.070000000000014,30.069999999999993,30.070000000000007,30.070000000000007,30.070000000000014,8.881784197001252e-15,81.94,75.33,79.41499999999999,80.195,75.33,2.5527289319471427
1 -> 2,0.7748190000000005,0.7748189999999998,0.7748190000000001,0.7748190000000001,0.7748190000000005,3.090730095650652e-16,62.12,62.12,62.12,62.12,62.12,0.0,30.070000000000014,30.069999999999993,30.070000000000007,30.070000000000007,30.070000000000014,8.881784197001252e-15,85.54,82.4,83.7425,83.515,82.4,1.188157712595428
1 -> 2,0.7748190000000005,0.7748189999999998,0.7748190000000001,0.7748190000000001,0.7748190000000005,3.090730095650652e-16,62.12,62.12,62.12,62.12,62.12,0.0,30.070000000000014,30.069999999999993,30.070000000000007,30.070000000000007,30.070000000000014,8.881784197001252e-15,85.54,82.4,83.7425,83.515,82.4,1.188157712595428
1 -> 2,0.7722590000000005,0.7722589999999997,0.7722590000000001,0.7722590000000003,0.7722590000000005,3.4219371797089426e-16,62.0,62.0,62.0,62.0,62.0,0.0,30.030000000000015,30.02999999999999,30.03,30.030000000000005,30.030000000000015,1.1916163935586911e-14,94.08,87.53,90.8975,90.99000000000001,87.53,2.456138992402505
1 -> 2,0.7722590000000005,0.7722589999999997,0.7722590000000001,0.7722590000000003,0.7722590000000005,3.4219371797089426e-16,62.0,62.0,62.0,62.0,62.0,0.0,30.030000000000015,30.02999999999999,30.03,30.030000000000005,30.030000000000015,1.1916163935586911e-14,94.08,87.53,90.8975,90.99000000000001,87.53,2.456138992402505
1 -> 2,0.7722590000000005,0.7722589999999997,0.7722590000000001,0.7722590000000003,0.7722590000000005,3.4219371797089426e-16,62.0,62.0,62.0,62.0,62.0,0.0,30.030000000000015,30.02999999999999,30.03,30.030000000000005,30.030000000000015,1.1916163935586911e-14,95.81,95.19,95.495,95.49000000000001,95.19,0.243567239176373
1 -> 2,0.7722590000000005,0.7722589999999997,0.7722590000000001,0.7722590000000003,0.7722590000000005,3.4219371797089426e-16,62.0,62.0,62.0,62.0,62.0,0.0,30.030000000000015,30.02999999999999,30.03,30.030000000000005,30.030000000000015,1.1916163935586911e-14,95.81,95.19,95.495,95.49000000000001,95.19,0.243567239176373
1 -> 2,0.7722590000000005,0.7722589999999997,0.7722590000000001,0.7722590000000003,0.7722590000000005,3.4219371797089426e-16,62.0,62.0,62.0,62.0,62.0,0.0,30.030000000000015,30.02999999999999,30.03,30.030000000000005,30.030000000000015,1.1916163935586911e-14,94.8,92.77,94.0325,94.28,92.77,0.7779259283505084
1 -> 2,0.7722590000000005,0.7722589999999997,0.7722590000000001,0.7722590000000003,0.7722590000000005,3.4219371797089426e-16,62.0,62.0,62.0,62.0,62.0,0.0,30.030000000000015,30.02999999999999,30.03,30.030000000000005,30.030000000000015,1.1916163935586911e-14,94.8,92.77,94.0325,94.28,92.77,0.7779259283505084
1 -> 2,0.7722590000000005,0.7722589999999997,0.7722590000000001,0.7722590000000003,0.7722590000000005,3.4219371797089426e-16,62.0,62.0,62.0,62.0,62.0,0.0,30.030000000000015,30.02999999999999,30.03,30.030000000000005,30.030000000000015,1.1916163935586911e-14,90.16,74.43,82.7925,83.28999999999999,74.43,5.905575226004659
1 -> 2,0.7722590000000005,0.7722589999999997,0.7722590000000001,0.7722590000000003,0.7722590000000005,3.4219371797089426e-16,62.0,62.0,62.0,62.0,62.0,0.0,30.030000000000015,30.02999999999999,30.03,30.030000000000005,30.030000000000015,1.1916163935586911e-14,90.16,74.43,82.7925,83.28999999999999,74.43,5.905575226004659
1 -> 2,0.7696980000000004,0.7696979999999998,0.7696980000000002,0.7696980000000002,0.7696980000000004,3.188872858294072e-16,62.0,62.0,62.0,62.0,62.0,0.0,30.030000000000015,30.02999999999999,30.03,30.030000000000005,30.030000000000015,1.1916163935586911e-14,68.31,55.17,61.167500000000004,60.595,55.17,4.938169574852609
1 -> 2,0.7696980000000004,0.7696979999999998,0.7696980000000002,0.7696980000000002,0.7696980000000004,3.188872858294072e-16,62.0,62.0,62.0,62.0,62.0,0.0,30.030000000000015,30.02999999999999,30.03,30.030000000000005,30.030000000000015,1.1916163935586911e-14,68.31,55.17,61.167500000000004,60.595,55.17,4.938169574852609
1 -> 2,0.7696980000000004,0.7696979999999998,0.7696980000000002,0.7696980000000002,0.7696980000000004,3.188872858294072e-16,62.0,62.0,62.0,62.0,62.0,0.0,30.030000000000015,30.02999999999999,30.03,30.030000000000005,30.030000000000015,1.1916163935586911e-14,53.15,48.32,50.995,51.254999999999995,48.32,1.7847478813546744
1 -> 2,0.7696980000000004,0.7696979999999998,0.7696980000000002,0.7696980000000002,0.7696980000000004,3.188872858294072e-16,62.0,62.0,62.0,62.0,62.0,0.0,30.030000000000015,30.02999999999999,30.03,30.030000000000005,30.030000000000015,1.1916163935586911e-14,53.15,48.32,50.995,51.254999999999995,48.32,1.7847478813546744
1 -> 2,0.7696980000000004,0.7696979999999998,0.7696980000000002,0.7696980000000002,0.7696980000000004,3.188872858294072e-16,62.0,62.0,62.0,62.0,62.0,0.0,30.030000000000015,30.02999999999999,30.03,30.030000000000005,30.030000000000015,1.1916163935586911e-14,44.1,22.33,33.4875,33.76,22.33,8.187693127493239
1 -> 2,0.7696980000000004,0.7696979999999998,0.7696980000000002,0.7696980000000002,0.7696980000000004,3.188872858294072e-16,62.0,62.0,62.0,62.0,62.0,0.0,30.030000000000015,30.02999999999999,30.03,30.030000000000005,30.030000000000015,1.1916163935586911e-14,44.1,22.33,33.4875,33.76,22.33,8.187693127493239
1 -> 2,0.7696980000000004,0.7696979999999998,0.7696980000000002,0.7696980000000002,0.7696980000000004,3.188872858294072e-16,62.0,62.0,62.0,62.0,62.0,0.0,30.030000000000015,30.02999999999999,30.03,30.030000000000005,30.030000000000015,1.1916163935586911e-14,34.91,17.58,23.49,20.735,17.58,7.046002412716021
1 -> 2,0.7696980000000004,0.7696979999999998,0.7696980000000002,0.7696980000000002,0.7696980000000004,3.188872858294072e-16,62.0,62.0,62.0,62.0,62.0,0.0,30.030000000000015,30.02999999999999,30.03,30.030000000000005,30.030000000000015,1.1916163935586911e-14,34.91,17.58,23.49,20.735,17.58,7.046002412716021
1 -> 2,0.7684180000000005,0.7684179999999999,0.7684180000000003,0.7684180000000004,0.7684180000000005,2.2887833992611187e-16,62.0,62.0,62.0,62.0,62.0,0.0,30.030000000000015,30.02999999999999,30.03,30.030000000000005,30.030000000000015,1.1916163935586911e-14,75.48,48.87,64.5925,67.01,48.87,10.28261974158337
1 -> 2,0.7684180000000005,0.7684179999999999,0.7684180000000003,0.7684180000000004,0.7684180000000005,2.2887833992611187e-16,62.0,62.0,62.0,62.0,62.0,0.0,30.030000000000015,30.02999999999999,30.03,30.030000000000005,30.030000000000015,1.1916163935586911e-14,75.48,48.87,64.5925,67.01,48.87,10.28261974158337
1 -> 2,0.7684180000000005,0.7684179999999999,0.7684180000000003,0.7684180000000004,0.7684180000000005,2.2887833992611187e-16,62.0,62.0,62.0,62.0,62.0,0.0,30.030000000000015,30.02999999999999,30.03,30.030000000000005,30.030000000000015,1.1916163935586911e-14,73.21,51.38,62.459999999999994,62.625,51.38,8.235129021454368
1 -> 2,0.7684180000000005,0.7684179999999999,0.7684180000000003,0.7684180000000004,0.7684180000000005,2.2887833992611187e-16,62.0,62.0,62.0,62.0,62.0,0.0,30.030000000000015,30.02999999999999,30.03,30.030000000000005,30.030000000000015,1.1916163935586911e-14,73.21,51.38,62.459999999999994,62.625,51.38,8.235129021454368
1 -> 2,0.7684180000000005,0.7684179999999999,0.7684180000000003,0.7684180000000004,0.7684180000000005,2.2887833992611187e-16,62.0,62.0,62.0,62.0,62.0,0.0,30.030000000000015,30.02999999999999,30.03,30.030000000000005,30.030000000000015,1.1916163935586911e-14,46.47,39.99,43.0175,42.805,39.99,2.384443069146335
1 -> 2,0.7684180000000005,0.7684179999999999,0.7684180000000003,0.7684180000000004,0.7684180000000005,2.2887833992611187e-16,62.0,62.0,62.0,62.0,62.0,0.0,30.030000000000015,30.02999999999999,30.03,30.030000000000005,30.030000000000015,1.1916163935586911e-14,46.47,39.99,43.0175,42.805,39.99,2.384443069146335
1 -> 2,0.7684180000000005,0.7684179999999999,0.7684180000000003,0.7684180000000004,0.7684180000000005,2.2887833992611187e-16,62.0,62.0,62.0,62.0,62.0,0.0,30.030000000000015,30.02999999999999,30.03,30.030000000000005,30.030000000000015,1.1916163935586911e-14,37.54,34.43,35.88,35.775000000000006,34.43,1.1675401492025872
1 -> 2,0.7684180000000005,0.7684179999999999,0.7684180000000003,0.7684180000000004,0.7684180000000005,2.2887833992611187e-16,62.0,62.0,62.0,62.0,62.0,0.0,30.030000000000015,30.02999999999999,30.03,30.030000000000005,30.030000000000015,1.1916163935586911e-14,37.54,34.43,35.88,35.775000000000006,34.43,1.1675401492025872
1 -> 2,0.7632970000000004,0.7632969999999998,0.7632970000000002,0.7632970000000002,0.7632970000000004,2.9373740229761033e-16,62.0,62.0,62.0,62.0,62.0,0.0,30.030000000000015,30.02999999999999,30.03,30.030000000000005,30.030000000000015,1.1916163935586911e-14,64.18,41.21,52.645,52.595,41.21,8.626802710158616
1 -> 2,0.7632970000000004,0.7632969999999998,0.7632970000000002,0.7632970000000002,0.7632970000000004,2.9373740229761033e-16,62.0,62.0,62.0,62.0,62.0,0.0,30.030000000000015,30.02999999999999,30.03,30.030000000000005,30.030000000000015,1.1916163935586911e-14,64.18,41.21,52.645,52.595,41.21,8.626802710158616
1 -> 2,0.7632970000000004,0.7632969999999998,0.7632970000000002,0.7632970000000002,0.7632970000000004,2.9373740229761033e-16,62.0,62.0,62.0,62.0,62.0,0.0,30.030000000000015,30.02999999999999,30.03,30.030000000000005,30.030000000000015,1.1916163935586911e-14,69.7,52.19,63.85,66.755,52.19,7.036586530413735
1 -> 2,0.7632970000000004,0.7632969999999998,0.7632970000000002,0.7632970000000002,0.7632970000000004,2.9373740229761033e-16,62.0,62.0,62.0,62.0,62.0,0.0,30.030000000000015,30.02999999999999,30.03,30.030000000000005,30.030000000000015,1.1916163935586911e-14,69.7,52.19,63.85,66.755,52.19,7.036586530413735
1 -> 2,0.7632970000000004,0.7632969999999998,0.7632970000000002,0.7632970000000002,0.7632970000000004,2.9373740229761033e-16,62.0,62.0,62.0,62.0,62.0,0.0,30.030000000000015,30.02999999999999,30.03,30.030000000000005,30.030000000000015,1.1916163935586911e-14,33.19,-41.39,-4.025,-3.95,-41.39,27.936158021460287
1 -> 2,0.7632970000000004,0.7632969999999998,0.7632970000000002,0.7632970000000002,0.7632970000000004,2.9373740229761033e-16,62.0,62.0,62.0,62.0,62.0,0.0,30.030000000000015,30.02999999999999,30.03,30.030000000000005,30.030000000000015,1.1916163935586911e-14,33.19,-41.39,-4.025,-3.95,-41.39,27.936158021460287
1 -> 2,0.7632970000000004,0.7632969999999998,0.7632970000000002,0.7632970000000002,0.7632970000000004,2.9373740229761033e-16,62.0,62.0,62.0,62.0,62.0,0.0,30.030000000000015,30.02999999999999,30.03,30.030000000000005,30.030000000000015,1.1916163935586911e-14,-60.9,-82.41,-74.4425,-77.22999999999999,-82.41,8.436999985184306
1 -> 2,0.7632970000000004,0.7632969999999998,0.7632970000000002,0.7632970000000002,0.7632970000000004,2.9373740229761033e-16,62.0,62.0,62.0,62.0,62.0,0.0,30.030000000000015,30.02999999999999,30.03,30.030000000000005,30.030000000000015,1.1916163935586911e-14,-60.9,-82.41,-74.4425,-77.22999999999999,-82.41,8.436999985184306
1 -> 2,0.7607360000000004,0.7607359999999996,0.7607360000000001,0.7607360000000001,0.7607360000000004,3.4219371797089426e-16,62.1,62.1,62.1,62.1,62.1,0.0,30.070000000000014,30.069999999999993,30.070000000000007,30.070000000000007,30.070000000000014,8.881784197001252e-15,-67.1,-81.15,-74.8725,-75.62,-81.15,5.2910602670920355
1 -> 2,0.7607360000000004,0.7607359999999996,0.7607360000000001,0.7607360000000001,0.7607360000000004,3.4219371797089426e-16,62.1,62.1,62.1,62.1,62.1,0.0,30.070000000000014,30.069999999999993,30.070000000000007,30.070000000000007,30.070000000000014,8.881784197001252e-15,-67.1,-81.15,-74.8725,-75.62,-81.15,5.2910602670920355
1 -> 2,0.7607360000000004,0.7607359999999996,0.7607360000000001,0.7607360000000001,0.7607360000000004,3.4219371797089426e-16,62.1,62.1,62.1,62.1,62.1,0.0,30.070000000000014,30.069999999999993,30.070000000000007,30.070000000000007,30.070000000000014,8.881784197001252e-15,-42.2,-59.77,-50.0325,-49.08,-59.77,6.66994518343292
1 -> 2,0.7607360000000004,0.7607359999999996,0.7607360000000001,0.7607360000000001,0.7607360000000004,3.4219371797089426e-16,62.1,62.1,62.1,62.1,62.1,0.0,30.070000000000014,30.069999999999993,30.070000000000007,30.070000000000007,30.070000000000014,8.881784197001252e-15,-42.2,-59.77,-50.0325,-49.08,-59.77,6.66994518343292
1 -> 2,0.7607360000000004,0.7607359999999996,0.7607360000000001,0.7607360000000001,0.7607360000000004,3.4219371797089426e-16,62.1,62.1,62.1,62.1,62.1,0.0,30.070000000000014,30.069999999999993,30.070000000000007,30.070000000000007,30.070000000000014,8.881784197001252e-15,-41.87,-57.44,-48.69,-47.725,-57.44,5.930290886626051
1 -> 2,0.7607360000000004,0.7607359999999996,0.7607360000000001,0.7607360000000001,0.7607360000000004,3.4219371797089426e-16,62.1,62.1,62.1,62.1,62.1,0.0,30.070000000000014,30.069999999999993,30.070000000000007,30.070000000000007,30.070000000000014,8.881784197001252e-15,-41.87,-57.44,-48.69,-47.725,-57.44,5.930290886626051
1 -> 2,0.7607360000000004,0.7607359999999996,0.7607360000000001,0.7607360000000001,0.7607360000000004,3.4219371797089426e-16,62.1,62.1,62.1,62.1,62.1,0.0,30.070000000000014,30.069999999999993,30.070000000000007,30.070000000000007,30.070000000000014,8.881784197001252e-15,-64.34,-77.06,-71.53999999999999,-72.38,-77.06,4.8209594480766995
1 -> 2,0.7607360000000004,0.7607359999999996,0.7607360000000001,0.7607360000000001,0.7607360000000004,3.4219371797089426e-16,62.1,62.1,62.1,62.1,62.1,0.0,30.070000000000014,30.069999999999993,30.070000000000007,30.070000000000007,30.070000000000014,8.881784197001252e-15,-64.34,-77.06,-71.53999999999999,-72.38,-77.06,4.8209594480766995
1 -> 2,0.7568950000000004,0.7568949999999998,0.7568950000000002,0.7568950000000002,0.7568950000000004,2.9373740229761033e-16,62.1,62.1,62.1,62.1,62.1,0.0,30.070000000000014,30.069999999999993,30.070000000000007,30.070000000000007,30.070000000000014,8.881784197001252e-15,-71.17,-77.9,-75.2975,-76.06,-77.9,2.621110213249342
1 -> 2,0.7568950000000004,0.7568949999999998,0.7568950000000002,0.7568950000000002,0.7568950000000004,2.9373740229761033e-16,62.1,62.1,62.1,62.1,62.1,0.0,30.070000000000014,30.069999999999993,30.070000000000007,30.070000000000007,30.070000000000014,8.881784197001252e-15,-71.17,-77.9,-75.2975,-76.06,-77.9,2.621110213249342
1 -> 2,0.7568950000000004,0.7568949999999998,0.7568950000000002,0.7568950000000002,0.7568950000000004,2.9373740229761033e-16,62.1,62.1,62.1,62.1,62.1,0.0,30.070000000000014,30.069999999999993,30.070000000000007,30.070000000000007,30.070000000000014,8.881784197001252e-15,-51.36,-66.04,-58.09,-57.480000000000004,-66.04,5.5637127891364075
1 -> 2,0.7568950000000004,0.7568949999999998,0.7568950000000002,0.7568950000000002,0.7568950000000004,2.9373740229761033e-16,62.1,62.1,62.1,62.1,62.1,0.0,30.070000000000014,30.069999999999993,30.070000000000007,30.070000000000007,30.070000000000014,8.881784197001252e-15,-51.36,-66.04,-58.09,-57.480000000000004,-66.04,5.5637127891364075
1 -> 2,0.7568950000000004,0.7568949999999998,0.7568950000000002,0.7568950000000002,0.7568950000000004,2.9373740229761033e-16,62.1,62.1,62.1,62.1,62.1,0.0,30.070000000000014,30.069999999999993,30.070000000000007,30.070000000000007,30.070000000000014,8.881784197001252e-15,-51.21,-68.61,-58.89750000000001,-57.885000000000005,-68.61,6.626497472269946
1 -> 2,0.7568950000000004,0.7568949999999998,0.7568950000000002,0.7568950000000002,0.7568950000000004,2.9373740229761033e-16,62.1,62.1,62.1,62.1,62.1,0.0,30.070000000000014,30.069999999999993,30.070000000000007,30.070000000000007,30.070000000000014,8.881784197001252e-15,-51.21,-68.61,-58.89750000000001,-57.885000000000005,-68.61,6.626497472269946
1 -> 2,0.7568950000000004,0.7568949999999998,0.7568950000000002,0.7568950000000002,0.7568950000000004,2.9373740229761033e-16,62.1,62.1,62.1,62.1,62.1,0.0,30.070000000000014,30.069999999999993,30.070000000000007,30.070000000000007,30.070000000000014,8.881784197001252e-15,-75.59,-87.77,-82.2475,-82.815,-87.77,4.541356487878922
1 -> 2,0.7568950000000004,0.7568949999999998,0.7568950000000002,0.7568950000000002,0.7568950000000004,2.9373740229761033e-16,62.1,62.1,62.1,62.1,62.1,0.0,30.070000000000014,30.069999999999993,30.070000000000007,30.070000000000007,30.070000000000014,8.881784197001252e-15,-75.59,-87.77,-82.2475,-82.815,-87.77,4.541356487878922
1 -> 2,0.7568950000000004,0.7568949999999998,0.7568950000000002,0.7568950000000002,0.7568950000000004,2.9373740229761033e-16,62.1,62.1,62.1,62.1,62.1,0.0,30.070000000000014,30.069999999999993,30.070000000000007,30.070000000000007,30.070000000000014,8.881784197001252e-15,-91.2,-101.67,-96.895,-97.35499999999999,-101.67,3.9955631643111325
1 -> 2,0.7568950000000004,0.7568949999999998,0.7568950000000002,0.7568950000000002,0.7568950000000004,2.9373740229761033e-16,62.1,62.1,62.1,62.1,62.1,0.0,30.070000000000014,30.069999999999993,30.070000000000007,30.070000000000007,30.070000000000014,8.881784197001252e-15,-91.2,-101.67,-96.895,-97.35499999999999,-101.67,3.9955631643111325
1 -> 2,0.7568950000000004,0.7568949999999998,0.7568950000000002,0.7568950000000002,0.7568950000000004,2.9373740229761033e-16,62.1,62.1,62.1,62.1,62.1,0.0,30.070000000000014,30.069999999999993,30.070000000000007,30.070000000000007,30.070000000000014,8.881784197001252e-15,-69.74,-100.38,-87.055,-89.05,-100.38,11.641978998434931
1 -> 2,0.7568950000000004,0.7568949999999998,0.7568950000000002,0.7568950000000002,0.7568950000000004,2.9373740229761033e-16,62.1,62.1,62.1,62.1,62.1,0.0,30.070000000000014,30.069999999999993,30.070000000000007,30.070000000000007,30.070000000000014,8.881784197001252e-15,-69.74,-100.38,-87.055,-89.05,-100.38,11.641978998434931
1 -> 2,0.7568950000000004,0.7568949999999998,0.7568950000000002,0.7568950000000002,0.7568950000000004,2.9373740229761033e-16,62.1,62.1,62.1,62.1,62.1,0.0,30.070000000000014,30.069999999999993,30.070000000000007,30.070000000000007,30.070000000000014,8.881784197001252e-15,-23.77,-54.59,-37.27,-35.36,-54.59,11.68702699577613
1 -> 2,0.7568950000000004,0.7568949999999998,0.7568950000000002,0.7568950000000002,0.7568950000000004,2.9373740229761033e-16,62.1,62.1,62.1,62.1,62.1,0.0,30.070000000000014,30.069999999999993,30.070000000000007,30.070000000000007,30.070000000000014,8.881784197001252e-15,-23.77,-54.59,-37.27,-35.36,-54.59,11.68702699577613
1 -> 2,0.7568950000000004,0.7568949999999998,0.7568950000000002,0.7568950000000002,0.7568950000000004,2.9373740229761033e-16,62.1,62.1,62.1,62.1,62.1,0.0,30.070000000000014,30.069999999999993,30.070000000000007,30.070000000000007,30.070000000000014,8.881784197001252e-15,-22.02,-31.78,-26.330000000000002,-25.76,-31.78,3.7491532377324885
1 -> 2,0.7568950000000004,0.7568949999999998,0.7568950000000002,0.7568950000000002,0.7568950000000004,2.9373740229761033e-16,62.1,62.1,62.1,62.1,62.1,0.0,30.070000000000014,30.069999999999993,30.070000000000007,30.070000000000007,30.070000000000014,8.881784197001252e-15,-22.02,-31.78,-26.330000000000002,-25.76,-31.78,3.7491532377324885
1 -> 2,0.7543350000000004,0.7543349999999995,0.7543350000000001,0.7543350000000002,0.7543350000000004,3.805652793121308e-16,62.1,62.1,62.1,62.1,62.1,0.0,30.070000000000014,30.069999999999993,30.070000000000007,30.070000000000007,30.070000000000014,8.881784197001252e-15,-34.9,-37.85,-36.68,-36.985,-37.85,1.1152802338425993
1 -> 2,0.7543350000000004,0.7543349999999995,0.7543350000000001,0.7543350000000002,0.7543350000000004,3.805652793121308e-16,62.1,62.1,62.1,62.1,62.1,0.0,30.070000000000014,30.069999999999993,30.070000000000007,30.070000000000007,30.070000000000014,8.881784197001252e-15,-34.9,-37.85,-36.68,-36.985,-37.85,1.1152802338425993
1 -> 2,0.7543350000000004,0.7543349999999995,0.7543350000000001,0.7543350000000002,0.7543350000000004,3.805652793121308e-16,62.1,62.1,62.1,62.1,62.1,0.0,30.070000000000014,30.069999999999993,30.070000000000007,30.070000000000007,30.070000000000014,8.881784197001252e-15,-38.76,-42.87,-40.8725,-40.93,-42.87,1.5503608450938118
1 -> 2,0.7543350000000004,0.7543349999999995,0.7543350000000001,0.7543350000000002,0.7543350000000004,3.805652793121308e-16,62.1,62.1,62.1,62.1,62.1,0.0,30.070000000000014,30.069999999999993,30.070000000000007,30.070000000000007,30.070000000000014,8.881784197001252e-15,-38.76,-42.87,-40.8725,-40.93,-42.87,1.5503608450938118
1 -> 2,0.7543350000000004,0.7543349999999995,0.7543350000000001,0.7543350000000002,0.7543350000000004,3.805652793121308e-16,62.1,62.1,62.1,62.1,62.1,0.0,30.070000000000014,30.069999999999993,30.070000000000007,30.070000000000007,30.070000000000014,8.881784197001252e-15,-43.61,-48.54,-45.605,-45.135000000000005,-48.54,1.8805650746517653
1 -> 2,0.7543350000000004,0.7543349999999995,0.7543350000000001,0.7543350000000002,0.7543350000000004,3.805652793121308e-16,62.1,62.1,62.1,62.1,62.1,0.0,30.070000000000014,30.069999999999993,30.070000000000007,30.070000000000007,30.070000000000014,8.881784197001252e-15,-43.61,-48.54,-45.605,-45.135000000000005,-48.54,1.8805650746517653
1 -> 2,0.7543350000000004,0.7543349999999995,0.7543350000000001,0.7543350000000002,0.7543350000000004,3.805652793121308e-16,62.1,62.1,62.1,62.1,62.1,0.0,30.070000000000014,30.069999999999993,30.070000000000007,30.070000000000007,30.070000000000014,8.881784197001252e-15,-52.2,-60.62,-57.015,-57.620000000000005,-60.62,3.224674402168378
1 -> 2,0.7543350000000004,0.7543349999999995,0.7543350000000001,0.7543350000000002,0.7543350000000004,3.805652793121308e-16,62.1,62.1,62.1,62.1,62.1,0.0,30.070000000000014,30.069999999999993,30.070000000000007,30.070000000000007,30.070000000000014,8.881784197001252e-15,-52.2,-60.62,-57.015,-57.620000000000005,-60.62,3.224674402168378
1 -> 2,0.7543350000000004,0.7543349999999995,0.7543350000000001,0.7543350000000002,0.7543350000000004,3.805652793121308e-16,63.0,63.0,63.0,63.0,63.0,0.0,30.050000000000015,30.049999999999983,30.049999999999997,30.05,30.050000000000015,1.5383701491068513e-14,-59.14,-60.46,-59.8625,-59.925,-60.46,0.5438922227794775
1 -> 2,0.7543350000000004,0.7543349999999995,0.7543350000000001,0.7543350000000002,0.7543350000000004,3.805652793121308e-16,63.0,63.0,63.0,63.0,63.0,0.0,30.050000000000015,30.049999999999983,30.049999999999997,30.05,30.050000000000015,1.5383701491068513e-14,-59.14,-60.46,-59.8625,-59.925,-60.46,0.5438922227794775
1 -> 2,0.7543350000000004,0.7543349999999995,0.7543350000000001,0.7543350000000002,0.7543350000000004,3.805652793121308e-16,63.0,63.0,63.0,63.0,63.0,0.0,30.050000000000015,30.049999999999983,30.049999999999997,30.05,30.050000000000015,1.5383701491068513e-14,-62.41,-66.61,-64.51750000000001,-64.525,-66.61,1.8105713877116245
1 -> 2,0.7543350000000004,0.7543349999999995,0.7543350000000001,0.7543350000000002,0.7543350000000004,3.805652793121308e-16,63.0,63.0,63.0,63.0,63.0,0.0,30.050000000000015,30.049999999999983,30.049999999999997,30.05,30.050000000000015,1.5383701491068513e-14,-62.41,-66.61,-64.51750000000001,-64.525,-66.61,1.8105713877116245
1 -> 2,0.7543350000000004,0.7543349999999995,0.7543350000000001,0.7543350000000002,0.7543350000000004,3.805652793121308e-16,63.0,63.0,63.0,63.0,63.0,0.0,30.050000000000015,30.049999999999983,30.049999999999997,30.05,30.050000000000015,1.5383701491068513e-14,-3.84,-52.16,-28.0375,-28.075,-52.16,18.163617997249332
1 -> 2,0.7543350000000004,0.7543349999999995,0.7543350000000001,0.7543350000000002,0.7543350000000004,3.805652793121308e-16,63.0,63.0,63.0,63.0,63.0,0.0,30.050000000000015,30.049999999999983,30.049999999999997,30.05,30.050000000000015,1.5383701491068513e-14,-3.84,-52.16,-28.0375,-28.075,-52.16,18.163617997249332
1 -> 2,0.7543350000000004,0.7543349999999995,0.7543350000000001,0.7543350000000002,0.7543350000000004,3.805652793121308e-16,63.0,63.0,63.0,63.0,63.0,0.0,30.050000000000015,30.049999999999983,30.049999999999997,30.05,30.050000000000015,1.5383701491068513e-14,9.85,2.34,6.54,6.984999999999999,2.34,2.7294046969989627
1 -> 2,0.7543350000000004,0.7543349999999995,0.7543350000000001,0.7543350000000002,0.7543350000000004,3.805652793121308e-16,63.0,63.0,63.0,63.0,63.0,0.0,30.050000000000015,30.049999999999983,30.049999999999997,30.05,30.050000000000015,1.5383701491068513e-14,9.85,2.34,6.54,6.984999999999999,2.34,2.7294046969989627
1 -> 2,0.7504940000000004,0.7504939999999998,0.7504940000000001,0.7504940000000002,0.7504940000000004,3.090730095650652e-16,63.0,63.0,63.0,63.0,63.0,0.0,30.050000000000015,30.049999999999983,30.049999999999997,30.05,30.050000000000015,1.5383701491068513e-14,-3.03,-7.05,-5.45,-5.86,-7.05,1.527727069865557
1 -> 2,0.7504940000000004,0.7504939999999998,0.7504940000000001,0.7504940000000002,0.7504940000000004,3.090730095650652e-16,63.0,63.0,63.0,63.0,63.0,0.0,30.050000000000015,30.049999999999983,30.049999999999997,30.05,30.050000000000015,1.5383701491068513e-14,-3.03,-7.05,-5.45,-5.86,-7.05,1.527727069865557
1 -> 2,0.7504940000000004,0.7504939999999998,0.7504940000000001,0.7504940000000002,0.7504940000000004,3.090730095650652e-16,63.0,63.0,63.0,63.0,63.0,0.0,30.050000000000015,30.049999999999983,30.049999999999997,30.05,30.050000000000015,1.5383701491068513e-14,12.52,-1.98,5.04,4.8100000000000005,-1.98,5.4207564047833765
1 -> 2,0.7504940000000004,0.7504939999999998,0.7504940000000001,0.7504940000000002,0.7504940000000004,3.090730095650652e-16,63.0,63.0,63.0,63.0,63.0,0.0,30.050000000000015,30.049999999999983,30.049999999999997,30.05,30.050000000000015,1.5383701491068513e-14,12.52,-1.98,5.04,4.8100000000000005,-1.98,5.4207564047833765
1 -> 2,0.7504940000000004,0.7504939999999998,0.7504940000000001,0.7504940000000002,0.7504940000000004,3.090730095650652e-16,63.0,63.0,63.0,63.0,63.0,0.0,30.050000000000015,30.049999999999983,30.049999999999997,30.05,30.050000000000015,1.5383701491068513e-14,24.86,17.59,22.1575,23.09,17.59,2.882398090132589
1 -> 2,0.7504940000000004,0.7504939999999998,0.7504940000000001,0.7504940000000002,0.7504940000000004,3.090730095650652e-16,63.0,63.0,63.0,63.0,63.0,0.0,30.050000000000015,30.049999999999983,30.049999999999997,30.05,30.050000000000015,1.5383701491068513e-14,24.86,17.59,22.1575,23.09,17.59,2.882398090132589
1 -> 2,0.7504940000000004,0.7504939999999998,0.7504940000000001,0.7504940000000002,0.7504940000000004,3.090730095650652e-16,63.0,63.0,63.0,63.0,63.0,0.0,30.050000000000015,30.049999999999983,30.049999999999997,30.05,30.050000000000015,1.5383701491068513e-14,23.3,13.5,18.445,18.490000000000002,13.5,3.6866278629663722
1 -> 2,0.7504940000000004,0.7504939999999998,0.7504940000000001,0.7504940000000002,0.7504940000000004,3.090730095650652e-16,63.0,63.0,63.0,63.0,63.0,0.0,30.050000000000015,30.049999999999983,30.049999999999997,30.05,30.050000000000015,1.5383701491068513e-14,23.3,13.5,18.445,18.490000000000002,13.5,3.6866278629663722
1 -> 2,0.7530550000000005,0.753055,0.7530550000000004,0.7530550000000003,0.7530550000000005,2.1499376424746292e-16,63.0,63.0,63.0,63.0,63.0,0.0,30.050000000000015,30.049999999999983,30.049999999999997,30.05,30.050000000000015,1.5383701491068513e-14,11.18,6.3,8.884999999999998,9.03,6.3,1.7932163840429298
1 -> 2,0.7530550000000005,0.753055,0.7530550000000004,0.7530550000000003,0.7530550000000005,2.1499376424746292e-16,63.0,63.0,63.0,63.0,63.0,0.0,30.050000000000015,30.049999999999983,30.049999999999997,30.05,30.050000000000015,1.5383701491068513e-14,11.18,6.3,8.884999999999998,9.03,6.3,1.7932163840429298
1 -> 2,0.7530550000000005,0.753055,0.7530550000000004,0.7530550000000003,0.7530550000000005,2.1499376424746292e-16,63.0,63.0,63.0,63.0,63.0,0.0,30.050000000000015,30.049999999999983,30.049999999999997,30.05,30.050000000000015,1.5383701491068513e-14,2.87,-6.49,-2.7,-3.5900000000000003,-6.49,3.7018238747946937
1 -> 2,0.7530550000000005,0.753055,0.7530550000000004,0.7530550000000003,0.7530550000000005,2.1499376424746292e-16,63.0,63.0,63.0,63.0,63.0,0.0,30.050000000000015,30.049999999999983,30.049999999999997,30.05,30.050000000000015,1.5383701491068513e-14,2.87,-6.49,-2.7,-3.5900000000000003,-6.49,3.7018238747946937
1 -> 2,0.7530550000000005,0.753055,0.7530550000000004,0.7530550000000003,0.7530550000000005,2.1499376424746292e-16,63.0,63.0,63.0,63.0,63.0,0.0,30.050000000000015,30.049999999999983,30.049999999999997,30.05,30.050000000000015,1.5383701491068513e-14,49.5,-1.81,21.375,18.905,-1.81,19.38854623224753
1 -> 2,0.7530550000000005,0.753055,0.7530550000000004,0.7530550000000003,0.7530550000000005,2.1499376424746292e-16,63.0,63.0,63.0,63.0,63.0,0.0,30.050000000000015,30.049999999999983,30.049999999999997,30.05,30.050000000000015,1.5383701491068513e-14,49.5,-1.81,21.375,18.905,-1.81,19.38854623224753
1 -> 2,0.7530550000000005,0.753055,0.7530550000000004,0.7530550000000003,0.7530550000000005,2.1499376424746292e-16,63.0,63.0,63.0,63.0,63.0,0.0,30.050000000000015,30.049999999999983,30.049999999999997,30.05,30.050000000000015,1.5383701491068513e-14,93.71,70.28,85.72749999999999,89.46000000000001,70.28,9.411302712696047
1 -> 2,0.7530550000000005,0.753055,0.7530550000000004,0.7530550000000003,0.7530550000000005,2.1499376424746292e-16,63.0,63.0,63.0,63.0,63.0,0.0,30.050000000000015,30.049999999999983,30.049999999999997,30.05,30.050000000000015,1.5383701491068513e-14,93.71,70.28,85.72749999999999,89.46000000000001,70.28,9.411302712696047
1 -> 2,0.7453730000000002,0.745373,0.7453730000000001,0.7453730000000001,0.745373,1.1102230246251565e-16,63.0,63.0,63.0,63.0,63.0,0.0,30.050000000000015,30.049999999999983,30.049999999999997,30.05,30.050000000000015,1.5383701491068513e-14,85.45,56.0,69.965,69.205,56.0,11.107746171028577
1 -> 2,0.7453730000000002,0.745373,0.7453730000000001,0.7453730000000001,0.745373,1.1102230246251565e-16,63.0,63.0,63.0,63.0,63.0,0.0,30.050000000000015,30.049999999999983,30.049999999999997,30.05,30.050000000000015,1.5383701491068513e-14,85.45,56.0,69.965,69.205,56.0,11.107746171028577
1 -> 2,0.7453730000000002,0.745373,0.7453730000000001,0.7453730000000001,0.745373,1.1102230246251565e-16,63.0,63.0,63.0,63.0,63.0,0.0,30.050000000000015,30.049999999999983,30.049999999999997,30.05,30.050000000000015,1.5383701491068513e-14,61.7,52.35,55.7975,54.57,52.35,3.744164626455414
1 -> 2,0.7453730000000002,0.745373,0.7453730000000001,0.7453730000000001,0.745373,1.1102230246251565e-16,63.0,63.0,63.0,63.0,63.0,0.0,30.050000000000015,30.049999999999983,30.049999999999997,30.05,30.050000000000015,1.5383701491068513e-14,61.7,52.35,55.7975,54.57,52.35,3.744164626455414
1 -> 2,0.7453730000000002,0.745373,0.7453730000000001,0.7453730000000001,0.745373,1.1102230246251565e-16,63.0,63.0,63.0,63.0,63.0,0.0,30.050000000000015,30.049999999999983,30.049999999999997,30.05,30.050000000000015,1.5383701491068513e-14,84.13,67.68,76.1075,76.31,67.68,6.133524170491216
1 -> 2,0.7453730000000002,0.745373,0.7453730000000001,0.7453730000000001,0.745373,1.1102230246251565e-16,63.0,63.0,63.0,63.0,63.0,0.0,30.050000000000015,30.049999999999983,30.049999999999997,30.05,30.050000000000015,1.5383701491068513e-14,84.13,67.68,76.1075,76.31,67.68,6.133524170491216
1 -> 2,0.7453730000000002,0.745373,0.7453730000000001,0.7453730000000001,0.745373,1.1102230246251565e-16,63.0,63.0,63.0,63.0,63.0,0.0,30.050000000000015,30.049999999999983,30.049999999999997,30.05,30.050000000000015,1.5383701491068513e-14,106.42,89.02,97.33000000000001,96.94,89.02,6.485240936156499
1 -> 2,0.7453730000000002,0.745373,0.7453730000000001,0.7453730000000001,0.745373,1.1102230246251565e-16,63.0,63.0,63.0,63.0,63.0,0.0,30.050000000000015,30.049999999999983,30.049999999999997,30.05,30.050000000000015,1.5383701491068513e-14,106.42,89.02,97.33000000000001,96.94,89.02,6.485240936156499
1 -> 2,0.7479340000000002,0.7479339999999998,0.7479340000000001,0.7479340000000001,0.7479340000000002,2.1499376424746292e-16,63.58,63.58,63.58,63.58,63.58,0.0,30.030000000000015,30.02999999999999,30.03,30.030000000000005,30.030000000000015,1.1916163935586911e-14,130.04,113.89,123.16749999999999,124.37,113.89,6.206357123949602
1 -> 2,0.7479340000000002,0.7479339999999998,0.7479340000000001,0.7479340000000001,0.7479340000000002,2.1499376424746292e-16,63.58,63.58,63.58,63.58,63.58,0.0,30.030000000000015,30.02999999999999,30.03,30.030000000000005,30.030000000000015,1.1916163935586911e-14,130.04,113.89,123.16749999999999,124.37,113.89,6.206357123949602
1 -> 2,0.7479340000000002,0.7479339999999998,0.7479340000000001,0.7479340000000001,0.7479340000000002,2.1499376424746292e-16,63.58,63.58,63.58,63.58,63.58,0.0,30.030000000000015,30.02999999999999,30.03,30.030000000000005,30.030000000000015,1.1916163935586911e-14,128.13,106.9,117.57249999999999,117.63,106.9,8.074928405255365
1 -> 2,0.7479340000000002,0.7479339999999998,0.7479340000000001,0.7479340000000001,0.7479340000000002,2.1499376424746292e-16,63.58,63.58,63.58,63.58,63.58,0.0,30.030000000000015,30.02999999999999,30.03,30.030000000000005,30.030000000000015,1.1916163935586911e-14,128.13,106.9,117.57249999999999,117.63,106.9,8.074928405255365
1 -> 2,0.7479340000000002,0.7479339999999998,0.7479340000000001,0.7479340000000001,0.7479340000000002,2.1499376424746292e-16,63.58,63.58,63.58,63.58,63.58,0.0,30.030000000000015,30.02999999999999,30.03,30.030000000000005,30.030000000000015,1.1916163935586911e-14,161.1,106.8,129.9275,125.905,106.8,20.762034311454165
1 -> 2,0.7479340000000002,0.7479339999999998,0.7479340000000001,0.7479340000000001,0.7479340000000002,2.1499376424746292e-16,63.58,63.58,63.58,63.58,63.58,0.0,30.030000000000015,30.02999999999999,30.03,30.030000000000005,30.030000000000015,1.1916163935586911e-14,161.1,106.8,129.9275,125.905,106.8,20.762034311454165
1 -> 2,0.7479340000000002,0.7479339999999998,0.7479340000000001,0.7479340000000001,0.7479340000000002,2.1499376424746292e-16,63.58,63.58,63.58,63.58,63.58,0.0,30.030000000000015,30.02999999999999,30.03,30.030000000000005,30.030000000000015,1.1916163935586911e-14,212.38,186.75,202.57000000000002,205.575,186.75,9.546845028594525
1 -> 2,0.7479340000000002,0.7479339999999998,0.7479340000000001,0.7479340000000001,0.7479340000000002,2.1499376424746292e-16,63.58,63.58,63.58,63.58,63.58,0.0,30.030000000000015,30.02999999999999,30.03,30.030000000000005,30.030000000000015,1.1916163935586911e-14,212.38,186.75,202.57000000000002,205.575,186.75,9.546845028594525
1 -> 2,0.7440930000000002,0.7440929999999997,0.7440930000000001,0.7440930000000002,0.7440930000000002,2.4196749845665633e-16,63.58,63.58,63.58,63.58,63.58,0.0,30.030000000000015,30.02999999999999,30.03,30.030000000000005,30.030000000000015,1.1916163935586911e-14,187.29,110.72,148.8925,148.78,110.72,28.68210711837608
1 -> 2,0.7440930000000002,0.7440929999999997,0.7440930000000001,0.7440930000000002,0.7440930000000002,2.4196749845665633e-16,63.58,63.58,63.58,63.58,63.58,0.0,30.030000000000015,30.02999999999999,30.03,30.030000000000005,30.030000000000015,1.1916163935586911e-14,187.29,110.72,148.8925,148.78,110.72,28.68210711837608
1 -> 2,0.7440930000000002,0.7440929999999997,0.7440930000000001,0.7440930000000002,0.7440930000000002,2.4196749845665633e-16,63.58,63.58,63.58,63.58,63.58,0.0,30.030000000000015,30.02999999999999,30.03,30.030000000000005,30.030000000000015,1.1916163935586911e-14,89.95,47.44,67.41999999999999,66.145,47.44,15.856284243163657
1 -> 2,0.7440930000000002,0.7440929999999997,0.7440930000000001,0.7440930000000002,0.7440930000000002,2.4196749845665633e-16,63.58,63.58,63.58,63.58,63.58,0.0,30.030000000000015,30.02999999999999,30.03,30.030000000000005,30.030000000000015,1.1916163935586911e-14,89.95,47.44,67.41999999999999,66.145,47.44,15.856284243163657
1 -> 2,0.7440930000000002,0.7440929999999997,0.7440930000000001,0.7440930000000002,0.7440930000000002,2.4196749845665633e-16,63.58,63.58,63.58,63.58,63.58,0.0,30.030000000000015,30.02999999999999,30.03,30.030000000000005,30.030000000000015,1.1916163935586911e-14,36.55,-7.44,16.2625,17.97,-7.44,16.42337872515884
1 -> 2,0.7440930000000002,0.7440929999999997,0.7440930000000001,0.7440930000000002,0.7440930000000002,2.4196749845665633e-16,63.58,63.58,63.58,63.58,63.58,0.0,30.030000000000015,30.02999999999999,30.03,30.030000000000005,30.030000000000015,1.1916163935586911e-14,36.55,-7.44,16.2625,17.97,-7.44,16.42337872515884
1 -> 2,0.7440930000000002,0.7440929999999997,0.7440930000000001,0.7440930000000002,0.7440930000000002,2.4196749845665633e-16,63.58,63.58,63.58,63.58,63.58,0.0,30.030000000000015,30.02999999999999,30.03,30.030000000000005,30.030000000000015,1.1916163935586911e-14,-30.24,-98.25,-65.83500000000001,-67.42500000000001,-98.25,25.54209124171316
1 -> 2,0.7440930000000002,0.7440929999999997,0.7440930000000001,0.7440930000000002,0.7440930000000002,2.4196749845665633e-16,63.58,63.58,63.58,63.58,63.58,0.0,30.030000000000015,30.02999999999999,30.03,30.030000000000005,30.030000000000015,1.1916163935586911e-14,-30.24,-98.25,-65.83500000000001,-67.42500000000001,-98.25,25.54209124171316
1 -> 2,0.7466530000000002,0.7466529999999997,0.746653,0.746653,0.7466530000000002,2.3551386880256624e-16,63.58,63.58,63.58,63.58,63.58,0.0,30.030000000000015,30.02999999999999,30.03,30.030000000000005,30.030000000000015,1.1916163935586911e-14,-109.9,-114.92,-112.80250000000001,-113.195,-114.92,2.1391864691980462
1 -> 2,0.7466530000000002,0.7466529999999997,0.746653,0.746653,0.7466530000000002,2.3551386880256624e-16,63.58,63.58,63.58,63.58,63.58,0.0,30.030000000000015,30.02999999999999,30.03,30.030000000000005,30.030000000000015,1.1916163935586911e-14,-109.9,-114.92,-112.80250000000001,-113.195,-114.92,2.1391864691980462
1 -> 2,0.7466530000000002,0.7466529999999997,0.746653,0.746653,0.7466530000000002,2.3551386880256624e-16,63.58,63.58,63.58,63.58,63.58,0.0,30.030000000000015,30.02999999999999,30.03,30.030000000000005,30.030000000000015,1.1916163935586911e-14,-8.74,-103.57,-63.7825,-71.41,-103.57,36.052382982959664
1 -> 2,0.7466530000000002,0.7466529999999997,0.746653,0.746653,0.7466530000000002,2.3551386880256624e-16,63.58,63.58,63.58,63.58,63.58,0.0,30.030000000000015,30.02999999999999,30.03,30.030000000000005,30.030000000000015,1.1916163935586911e-14,-8.74,-103.57,-63.7825,-71.41,-103.57,36.052382982959664
1 -> 2,0.7466530000000002,0.7466529999999997,0.746653,0.746653,0.7466530000000002,2.3551386880256624e-16,63.58,63.58,63.58,63.58,63.58,0.0,30.030000000000015,30.02999999999999,30.03,30.030000000000005,30.030000000000015,1.1916163935586911e-14,240.41,53.31,151.2775,155.695,53.31,70.28264770731109
1 -> 2,0.7466530000000002,0.7466529999999997,0.746653,0.746653,0.7466530000000002,2.3551386880256624e-16,63.58,63.58,63.58,63.58,63.58,0.0,30.030000000000015,30.02999999999999,30.03,30.030000000000005,30.030000000000015,1.1916163935586911e-14,240.41,53.31,151.2775,155.695,53.31,70.28264770731109
