PHASE,EDA_MAX,EDA_MIN,EDA_MEAN,EDA_MEDIAN,EDA_MODE,EDA_SD,EDA_DIFF,HR_MAX,HR_MIN,HR_MEAN,HR_MEDIAN,HR_MODE,HR_SD,HR_DIFF,SKT_MAX,SKT_MIN,SKT_MEAN,SKT_MEDIAN,SKT_MODE,SKT_SD,SKT_DIFF,BVP_MAX,BVP_MIN,BVP_MEAN,BVP_MEDIAN,BVP_MODE,BVP_SD,BVP_DIFF
1 -> 2,0.08323100000000003,0.08323099999999993,0.08323099999999997,0.08323099999999999,0.08323100000000003,4.654751537338637e-17,4.625929269271485e-18,78.0,78.0,78.0,78.0,78.0,0.0,0.0,27.950000000000014,27.949999999999985,27.95,27.950000000000003,27.950000000000014,1.2809491335957507e-14,2.3684757858670005e-15,0.59,0.36,0.485,0.495,0.36,0.09394147114027969,-0.023333333333333334
1 -> 2,0.08323100000000003,0.08323099999999993,0.08323099999999997,0.08323099999999999,0.08323100000000003,4.654751537338637e-17,4.625929269271485e-18,78.0,78.0,78.0,78.0,78.0,0.0,0.0,27.950000000000014,27.949999999999985,27.95,27.950000000000003,27.950000000000014,1.2809491335957507e-14,2.3684757858670005e-15,0.59,0.36,0.485,0.495,0.36,0.09394147114027969,-0.023333333333333334
1 -> 2,0.08323100000000003,0.08323099999999993,0.08323099999999997,0.08323099999999999,0.08323100000000003,4.654751537338637e-17,4.625929269271485e-18,78.0,78.0,78.0,78.0,78.0,0.0,0.0,27.950000000000014,27.949999999999985,27.95,27.950000000000003,27.950000000000014,1.2809491335957507e-14,2.3684757858670005e-15,0.1,-0.21,-0.1025,-0.15,-0.21,0.12275483697190918,-0.09666666666666668
1 -> 2,0.08323100000000003,0.08323099999999993,0.08323099999999997,0.08323099999999999,0.08323100000000003,4.654751537338637e-17,4.625929269271485e-18,78.0,78.0,78.0,78.0,78.0,0.0,0.0,27.950000000000014,27.949999999999985,27.95,27.950000000000003,27.950000000000014,1.2809491335957507e-14,2.3684757858670005e-15,0.1,-0.21,-0.1025,-0.15,-0.21,0.12275483697190918,-0.09666666666666668
1 -> 2,0.08323100000000003,0.08323099999999993,0.08323099999999997,0.08323099999999999,0.08323100000000003,4.654751537338637e-17,4.625929269271485e-18,78.0,78.0,78.0,78.0,78.0,0.0,0.0,27.950000000000014,27.949999999999985,27.95,27.950000000000003,27.950000000000014,1.2809491335957507e-14,2.3684757858670005e-15,0.26,-0.08,0.0975,0.10500000000000001,-0.08,0.1265652005884714,0.11333333333333333
1 -> 2,0.08323100000000003,0.08323099999999993,0.08323099999999997,0.08323099999999999,0.08323100000000003,4.654751537338637e-17,4.625929269271485e-18,78.0,78.0,78.0,78.0,78.0,0.0,0.0,27.950000000000014,27.949999999999985,27.95,27.950000000000003,27.950000000000014,1.2809491335957507e-14,2.3684757858670005e-15,0.26,-0.08,0.0975,0.10500000000000001,-0.08,0.1265652005884714,0.11333333333333333
1 -> 2,0.08323100000000003,0.08323099999999993,0.08323099999999997,0.08323099999999999,0.08323100000000003,4.654751537338637e-17,4.625929269271485e-18,78.0,78.0,78.0,78.0,78.0,0.0,0.0,27.950000000000014,27.949999999999985,27.95,27.950000000000003,27.950000000000014,1.2809491335957507e-14,2.3684757858670005e-15,0.79,0.4,0.63,0.665,0.4,0.154434452114805,0.13
1 -> 2,0.08323100000000003,0.08323099999999993,0.08323099999999997,0.08323099999999999,0.08323100000000003,4.654751537338637e-17,4.625929269271485e-18,78.0,78.0,78.0,78.0,78.0,0.0,0.0,27.950000000000014,27.949999999999985,27.95,27.950000000000003,27.950000000000014,1.2809491335957507e-14,2.3684757858670005e-15,0.79,0.4,0.63,0.665,0.4,0.154434452114805,0.13
1 -> 2,0.08707300000000003,0.08707299999999998,0.08707300000000001,0.08707300000000001,0.08707300000000003,1.8358587643600646e-17,-4.625929269271485e-18,78.0,78.0,78.0,78.0,78.0,0.0,0.0,27.950000000000014,27.949999999999985,27.95,27.950000000000003,27.950000000000014,1.2809491335957507e-14,2.3684757858670005e-15,0.61,-0.79,-0.0775,-0.065,-0.79,0.5294041461870128,-0.4666666666666666
1 -> 2,0.08707300000000003,0.08707299999999998,0.08707300000000001,0.08707300000000001,0.08707300000000003,1.8358587643600646e-17,-4.625929269271485e-18,78.0,78.0,78.0,78.0,78.0,0.0,0.0,27.950000000000014,27.949999999999985,27.95,27.950000000000003,27.950000000000014,1.2809491335957507e-14,2.3684757858670005e-15,0.61,-0.79,-0.0775,-0.065,-0.79,0.5294041461870128,-0.4666666666666666
1 -> 2,0.08707300000000003,0.08707299999999998,0.08707300000000001,0.08707300000000001,0.08707300000000003,1.8358587643600646e-17,-4.625929269271485e-18,78.0,78.0,78.0,78.0,78.0,0.0,0.0,27.950000000000014,27.949999999999985,27.95,27.950000000000003,27.950000000000014,1.2809491335957507e-14,2.3684757858670005e-15,-0.66,-1.03,-0.8775000000000001,-0.9099999999999999,-1.03,0.14905955185763844,0.12333333333333334
1 -> 2,0.08707300000000003,0.08707299999999998,0.08707300000000001,0.08707300000000001,0.08707300000000003,1.8358587643600646e-17,-4.625929269271485e-18,78.0,78.0,78.0,78.0,78.0,0.0,0.0,27.950000000000014,27.949999999999985,27.95,27.950000000000003,27.950000000000014,1.2809491335957507e-14,2.3684757858670005e-15,-0.66,-1.03,-0.8775000000000001,-0.9099999999999999,-1.03,0.14905955185763844,0.12333333333333334
1 -> 2,0.08707300000000003,0.08707299999999998,0.08707300000000001,0.08707300000000001,0.08707300000000003,1.8358587643600646e-17,-4.625929269271485e-18,78.0,78.0,78.0,78.0,78.0,0.0,0.0,27.950000000000014,27.949999999999985,27.95,27.950000000000003,27.950000000000014,1.2809491335957507e-14,2.3684757858670005e-15,-0.65,-1.05,-0.8775,-0.905,-1.05,0.15896147331979532,-0.13333333333333333
1 -> 2,0.08707300000000003,0.08707299999999998,0.08707300000000001,0.08707300000000001,0.08707300000000003,1.8358587643600646e-17,-4.625929269271485e-18,78.0,78.0,78.0,78.0,78.0,0.0,0.0,27.950000000000014,27.949999999999985,27.95,27.950000000000003,27.950000000000014,1.2809491335957507e-14,2.3684757858670005e-15,-0.65,-1.05,-0.8775,-0.905,-1.05,0.15896147331979532,-0.13333333333333333
1 -> 2,0.08707300000000003,0.08707299999999998,0.08707300000000001,0.08707300000000001,0.08707300000000003,1.8358587643600646e-17,-4.625929269271485e-18,78.0,78.0,78.0,78.0,78.0,0.0,0.0,27.950000000000014,27.949999999999985,27.95,27.950000000000003,27.950000000000014,1.2809491335957507e-14,2.3684757858670005e-15,0.35,-0.85,-0.23,-0.21,-0.85,0.45480765165067305,0.39999999999999997
1 -> 2,0.08707300000000003,0.08707299999999998,0.08707300000000001,0.08707300000000001,0.08707300000000003,1.8358587643600646e-17,-4.625929269271485e-18,78.0,78.0,78.0,78.0,78.0,0.0,0.0,27.950000000000014,27.949999999999985,27.95,27.950000000000003,27.950000000000014,1.2809491335957507e-14,2.3684757858670005e-15,0.35,-0.85,-0.23,-0.21,-0.85,0.45480765165067305,0.39999999999999997
1 -> 2,0.08323100000000003,0.08323099999999993,0.08323099999999997,0.08323099999999999,0.08323100000000003,4.654751537338637e-17,4.625929269271485e-18,78.0,78.0,78.0,78.0,78.0,0.0,0.0,27.950000000000014,27.949999999999985,27.95,27.950000000000003,27.950000000000014,1.2809491335957507e-14,2.3684757858670005e-15,0.44,0.17,0.2925,0.27999999999999997,0.17,0.10825317547305482,-0.09000000000000001
1 -> 2,0.08323100000000003,0.08323099999999993,0.08323099999999997,0.08323099999999999,0.08323100000000003,4.654751537338637e-17,4.625929269271485e-18,78.0,78.0,78.0,78.0,78.0,0.0,0.0,27.950000000000014,27.949999999999985,27.95,27.950000000000003,27.950000000000014,1.2809491335957507e-14,2.3684757858670005e-15,0.44,0.17,0.2925,0.27999999999999997,0.17,0.10825317547305482,-0.09000000000000001
1 -> 2,0.08323100000000003,0.08323099999999993,0.08323099999999997,0.08323099999999999,0.08323100000000003,4.654751537338637e-17,4.625929269271485e-18,78.0,78.0,78.0,78.0,78.0,0.0,0.0,27.950000000000014,27.949999999999985,27.95,27.950000000000003,27.950000000000014,1.2809491335957507e-14,2.3684757858670005e-15,0.66,0.29,0.5175000000000001,0.56,0.29,0.14872373717735848,0.12333333333333335
1 -> 2,0.08323100000000003,0.08323099999999993,0.08323099999999997,0.08323099999999999,0.08323100000000003,4.654751537338637e-17,4.625929269271485e-18,78.0,78.0,78.0,78.0,78.0,0.0,0.0,27.950000000000014,27.949999999999985,27.95,27.950000000000003,27.950000000000014,1.2809491335957507e-14,2.3684757858670005e-15,0.66,0.29,0.5175000000000001,0.56,0.29,0.14872373717735848,0.12333333333333335
1 -> 2,0.08323100000000003,0.08323099999999993,0.08323099999999997,0.08323099999999999,0.08323100000000003,4.654751537338637e-17,4.625929269271485e-18,78.0,78.0,78.0,78.0,78.0,0.0,0.0,27.950000000000014,27.949999999999985,27.95,27.950000000000003,27.950000000000014,1.2809491335957507e-14,2.3684757858670005e-15,0.55,0.3,0.395,0.365,0.3,0.09500000000000001,-0.07
1 -> 2,0.08323100000000003,0.08323099999999993,0.08323099999999997,0.08323099999999999,0.08323100000000003,4.654751537338637e-17,4.625929269271485e-18,78.0,78.0,78.0,78.0,78.0,0.0,0.0,27.950000000000014,27.949999999999985,27.95,27.950000000000003,27.950000000000014,1.2809491335957507e-14,2.3684757858670005e-15,0.55,0.3,0.395,0.365,0.3,0.09500000000000001,-0.07
1 -> 2,0.08323100000000003,0.08323099999999993,0.08323099999999997,0.08323099999999999,0.08323100000000003,4.654751537338637e-17,4.625929269271485e-18,78.0,78.0,78.0,78.0,78.0,0.0,0.0,27.950000000000014,27.949999999999985,27.95,27.950000000000003,27.950000000000014,1.2809491335957507e-14,2.3684757858670005e-15,0.76,0.49,0.6575,0.69,0.49,0.10304731922762474,0.07666666666666666
1 -> 2,0.08323100000000003,0.08323099999999993,0.08323099999999997,0.08323099999999999,0.08323100000000003,4.654751537338637e-17,4.625929269271485e-18,78.0,78.0,78.0,78.0,78.0,0.0,0.0,27.950000000000014,27.949999999999985,27.95,27.950000000000003,27.950000000000014,1.2809491335957507e-14,2.3684757858670005e-15,0.76,0.49,0.6575,0.69,0.49,0.10304731922762474,0.07666666666666666
1 -> 2,0.08451200000000003,0.08451199999999999,0.08451200000000002,0.08451200000000002,0.08451200000000003,1.8358587643600646e-17,-4.625929269271485e-18,78.0,78.0,78.0,78.0,78.0,0.0,0.0,27.950000000000014,27.949999999999985,27.95,27.950000000000003,27.950000000000014,1.2809491335957507e-14,2.3684757858670005e-15,0.54,-0.24,0.14,0.13,-0.24,0.29317230428538094,-0.26
1 -> 2,0.08451200000000003,0.08451199999999999,0.08451200000000002,0.08451200000000002,0.08451200000000003,1.8358587643600646e-17,-4.625929269271485e-18,78.0,78.0,78.0,78.0,78.0,0.0,0.0,27.950000000000014,27.949999999999985,27.95,27.950000000000003,27.950000000000014,1.2809491335957507e-14,2.3684757858670005e-15,0.54,-0.24,0.14,0.13,-0.24,0.29317230428538094,-0.26
1 -> 2,0.08451200000000003,0.08451199999999999,0.08451200000000002,0.08451200000000002,0.08451200000000003,1.8358587643600646e-17,-4.625929269271485e-18,78.0,78.0,78.0,78.0,78.0,0.0,0.0,27.950000000000014,27.949999999999985,27.95,27.950000000000003,27.950000000000014,1.2809491335957507e-14,2.3684757858670005e-15,0.32,-0.33,-0.07250000000000002,-0.14,-0.33,0.2541038173660522,0.2166666666666667
1 -> 2,0.08451200000000003,0.08451199999999999,0.08451200000000002,0.08451200000000002,0.08451200000000003,1.8358587643600646e-17,-4.625929269271485e-18,78.0,78.0,78.0,78.0,78.0,0.0,0.0,27.950000000000014,27.949999999999985,27.95,27.950000000000003,27.950000000000014,1.2809491335957507e-14,2.3684757858670005e-15,0.32,-0.33,-0.07250000000000002,-0.14,-0.33,0.2541038173660522,0.2166666666666667
1 -> 2,0.08451200000000003,0.08451199999999999,0.08451200000000002,0.08451200000000002,0.08451200000000003,1.8358587643600646e-17,-4.625929269271485e-18,78.0,78.0,78.0,78.0,78.0,0.0,0.0,27.950000000000014,27.949999999999985,27.95,27.950000000000003,27.950000000000014,1.2809491335957507e-14,2.3684757858670005e-15,0.76,0.24,0.5675000000000001,0.635,0.24,0.19587942719948923,-0.13
1 -> 2,0.08451200000000003,0.08451199999999999,0.08451200000000002,0.08451200000000002,0.08451200000000003,1.8358587643600646e-17,-4.625929269271485e-18,78.0,78.0,78.0,78.0,78.0,0.0,0.0,27.950000000000014,27.949999999999985,27.95,27.950000000000003,27.950000000000014,1.2809491335957507e-14,2.3684757858670005e-15,0.76,0.24,0.5675000000000001,0.635,0.24,0.19587942719948923,-0.13
1 -> 2,0.08451200000000003,0.08451199999999999,0.08451200000000002,0.08451200000000002,0.08451200000000003,1.8358587643600646e-17,-4.625929269271485e-18,78.0,78.0,78.0,78.0,78.0,0.0,0.0,27.950000000000014,27.949999999999985,27.95,27.950000000000003,27.950000000000014,1.2809491335957507e-14,2.3684757858670005e-15,-0.34,-1.79,-1.1475,-1.23,-1.79,0.5508345940479773,-0.48333333333333334
1 -> 2,0.08451200000000003,0.08451199999999999,0.08451200000000002,0.08451200000000002,0.08451200000000003,1.8358587643600646e-17,-4.625929269271485e-18,78.0,78.0,78.0,78.0,78.0,0.0,0.0,27.950000000000014,27.949999999999985,27.95,27.950000000000003,27.950000000000014,1.2809491335957507e-14,2.3684757858670005e-15,-0.34,-1.79,-1.1475,-1.23,-1.79,0.5508345940479773,-0.48333333333333334
1 -> 2,0.08195100000000002,0.08195099999999998,0.08195100000000001,0.08195100000000001,0.08195100000000002,1.8358587643600646e-17,-4.625929269271485e-18,76.0,76.0,76.0,76.0,76.0,0.0,0.0,27.950000000000014,27.949999999999985,27.95,27.950000000000003,27.950000000000014,1.2809491335957507e-14,2.3684757858670005e-15,-0.22,-1.78,-1.0999999999999999,-1.2,-1.78,0.594474557908074,0.52
1 -> 2,0.08195100000000002,0.08195099999999998,0.08195100000000001,0.08195100000000001,0.08195100000000002,1.8358587643600646e-17,-4.625929269271485e-18,76.0,76.0,76.0,76.0,76.0,0.0,0.0,27.950000000000014,27.949999999999985,27.95,27.950000000000003,27.950000000000014,1.2809491335957507e-14,2.3684757858670005e-15,-0.22,-1.78,-1.0999999999999999,-1.2,-1.78,0.594474557908074,0.52
1 -> 2,0.08195100000000002,0.08195099999999998,0.08195100000000001,0.08195100000000001,0.08195100000000002,1.8358587643600646e-17,-4.625929269271485e-18,76.0,76.0,76.0,76.0,76.0,0.0,0.0,27.950000000000014,27.949999999999985,27.95,27.950000000000003,27.950000000000014,1.2809491335957507e-14,2.3684757858670005e-15,1.09,0.45,0.855,0.94,0.45,0.24212600025606504,0.17
1 -> 2,0.08195100000000002,0.08195099999999998,0.08195100000000001,0.08195100000000001,0.08195100000000002,1.8358587643600646e-17,-4.625929269271485e-18,76.0,76.0,76.0,76.0,76.0,0.0,0.0,27.950000000000014,27.949999999999985,27.95,27.950000000000003,27.950000000000014,1.2809491335957507e-14,2.3684757858670005e-15,1.09,0.45,0.855,0.94,0.45,0.24212600025606504,0.17
1 -> 2,0.08195100000000002,0.08195099999999998,0.08195100000000001,0.08195100000000001,0.08195100000000002,1.8358587643600646e-17,-4.625929269271485e-18,76.0,76.0,76.0,76.0,76.0,0.0,0.0,27.950000000000014,27.949999999999985,27.95,27.950000000000003,27.950000000000014,1.2809491335957507e-14,2.3684757858670005e-15,0.62,-0.28,0.1175,0.065,-0.28,0.3406152521540983,-0.3
1 -> 2,0.08195100000000002,0.08195099999999998,0.08195100000000001,0.08195100000000001,0.08195100000000002,1.8358587643600646e-17,-4.625929269271485e-18,76.0,76.0,76.0,76.0,76.0,0.0,0.0,27.950000000000014,27.949999999999985,27.95,27.950000000000003,27.950000000000014,1.2809491335957507e-14,2.3684757858670005e-15,0.62,-0.28,0.1175,0.065,-0.28,0.3406152521540983,-0.3
1 -> 2,0.08195100000000002,0.08195099999999998,0.08195100000000001,0.08195100000000001,0.08195100000000002,1.8358587643600646e-17,-4.625929269271485e-18,76.0,76.0,76.0,76.0,76.0,0.0,0.0,27.950000000000014,27.949999999999985,27.95,27.950000000000003,27.950000000000014,1.2809491335957507e-14,2.3684757858670005e-15,-0.22,-0.34,-0.295,-0.31,-0.34,0.04716990566028303,0.04000000000000001
1 -> 2,0.08195100000000002,0.08195099999999998,0.08195100000000001,0.08195100000000001,0.08195100000000002,1.8358587643600646e-17,-4.625929269271485e-18,76.0,76.0,76.0,76.0,76.0,0.0,0.0,27.950000000000014,27.949999999999985,27.95,27.950000000000003,27.950000000000014,1.2809491335957507e-14,2.3684757858670005e-15,-0.22,-0.34,-0.295,-0.31,-0.34,0.04716990566028303,0.04000000000000001
1 -> 2,0.08707300000000003,0.08707299999999998,0.08707300000000001,0.08707300000000001,0.08707300000000003,1.8358587643600646e-17,-4.625929269271485e-18,76.0,76.0,76.0,76.0,76.0,0.0,0.0,27.950000000000014,27.949999999999985,27.95,27.950000000000003,27.950000000000014,1.2809491335957507e-14,2.3684757858670005e-15,0.32,-0.1,0.125,0.14,-0.1,0.15960889699512368,0.14
1 -> 2,0.08707300000000003,0.08707299999999998,0.08707300000000001,0.08707300000000001,0.08707300000000003,1.8358587643600646e-17,-4.625929269271485e-18,76.0,76.0,76.0,76.0,76.0,0.0,0.0,27.950000000000014,27.949999999999985,27.95,27.950000000000003,27.950000000000014,1.2809491335957507e-14,2.3684757858670005e-15,0.32,-0.1,0.125,0.14,-0.1,0.15960889699512368,0.14
1 -> 2,0.08707300000000003,0.08707299999999998,0.08707300000000001,0.08707300000000001,0.08707300000000003,1.8358587643600646e-17,-4.625929269271485e-18,76.0,76.0,76.0,76.0,76.0,0.0,0.0,27.950000000000014,27.949999999999985,27.95,27.950000000000003,27.950000000000014,1.2809491335957507e-14,2.3684757858670005e-15,0.33,-0.13,0.12750000000000003,0.155,-0.13,0.17555269864060766,-0.15333333333333335
1 -> 2,0.08707300000000003,0.08707299999999998,0.08707300000000001,0.08707300000000001,0.08707300000000003,1.8358587643600646e-17,-4.625929269271485e-18,76.0,76.0,76.0,76.0,76.0,0.0,0.0,27.950000000000014,27.949999999999985,27.95,27.950000000000003,27.950000000000014,1.2809491335957507e-14,2.3684757858670005e-15,0.33,-0.13,0.12750000000000003,0.155,-0.13,0.17555269864060766,-0.15333333333333335
1 -> 2,0.08707300000000003,0.08707299999999998,0.08707300000000001,0.08707300000000001,0.08707300000000003,1.8358587643600646e-17,-4.625929269271485e-18,76.0,76.0,76.0,76.0,76.0,0.0,0.0,27.950000000000014,27.949999999999985,27.95,27.950000000000003,27.950000000000014,1.2809491335957507e-14,2.3684757858670005e-15,-0.33,-0.48,-0.4125,-0.42000000000000004,-0.48,0.060570207197928584,-0.016666666666666663
1 -> 2,0.08707300000000003,0.08707299999999998,0.08707300000000001,0.08707300000000001,0.08707300000000003,1.8358587643600646e-17,-4.625929269271485e-18,76.0,76.0,76.0,76.0,76.0,0.0,0.0,27.950000000000014,27.949999999999985,27.95,27.950000000000003,27.950000000000014,1.2809491335957507e-14,2.3684757858670005e-15,-0.33,-0.48,-0.4125,-0.42000000000000004,-0.48,0.060570207197928584,-0.016666666666666663
1 -> 2,0.08707300000000003,0.08707299999999998,0.08707300000000001,0.08707300000000001,0.08707300000000003,1.8358587643600646e-17,-4.625929269271485e-18,76.0,76.0,76.0,76.0,76.0,0.0,0.0,27.950000000000014,27.949999999999985,27.95,27.950000000000003,27.950000000000014,1.2809491335957507e-14,2.3684757858670005e-15,0.13,-0.18,0.007500000000000003,0.04,-0.18,0.11453711188955308,0.07666666666666666
1 -> 2,0.08707300000000003,0.08707299999999998,0.08707300000000001,0.08707300000000001,0.08707300000000003,1.8358587643600646e-17,-4.625929269271485e-18,76.0,76.0,76.0,76.0,76.0,0.0,0.0,27.950000000000014,27.949999999999985,27.95,27.950000000000003,27.950000000000014,1.2809491335957507e-14,2.3684757858670005e-15,0.13,-0.18,0.007500000000000003,0.04,-0.18,0.11453711188955308,0.07666666666666666
1 -> 2,0.08323100000000003,0.08323099999999993,0.08323099999999997,0.08323099999999999,0.08323100000000003,4.654751537338637e-17,4.625929269271485e-18,76.0,76.0,76.0,76.0,76.0,0.0,0.0,27.950000000000014,27.949999999999985,27.95,27.950000000000003,27.950000000000014,1.2809491335957507e-14,2.3684757858670005e-15,-0.18,-0.52,-0.38,-0.41000000000000003,-0.52,0.12409673645990857,-0.07333333333333335
1 -> 2,0.08323100000000003,0.08323099999999993,0.08323099999999997,0.08323099999999999,0.08323100000000003,4.654751537338637e-17,4.625929269271485e-18,76.0,76.0,76.0,76.0,76.0,0.0,0.0,27.950000000000014,27.949999999999985,27.95,27.950000000000003,27.950000000000014,1.2809491335957507e-14,2.3684757858670005e-15,-0.18,-0.52,-0.38,-0.41000000000000003,-0.52,0.12409673645990857,-0.07333333333333335
1 -> 2,0.08323100000000003,0.08323099999999993,0.08323099999999997,0.08323099999999999,0.08323100000000003,4.654751537338637e-17,4.625929269271485e-18,76.0,76.0,76.0,76.0,76.0,0.0,0.0,27.950000000000014,27.949999999999985,27.95,27.950000000000003,27.950000000000014,1.2809491335957507e-14,2.3684757858670005e-15,0.52,-0.1,0.2825,0.355,-0.1,0.2447830672248389,0.20666666666666667
1 -> 2,0.08323100000000003,0.08323099999999993,0.08323099999999997,0.08323099999999999,0.08323100000000003,4.654751537338637e-17,4.625929269271485e-18,76.0,76.0,76.0,76.0,76.0,0.0,0.0,27.950000000000014,27.949999999999985,27.95,27.950000000000003,27.950000000000014,1.2809491335957507e-14,2.3684757858670005e-15,0.52,-0.1,0.2825,0.355,-0.1,0.2447830672248389,0.20666666666666667
1 -> 2,0.08323100000000003,0.08323099999999993,0.08323099999999997,0.08323099999999999,0.08323100000000003,4.654751537338637e-17,4.625929269271485e-18,76.0,76.0,76.0,76.0,76.0,0.0,0.0,27.950000000000014,27.949999999999985,27.95,27.950000000000003,27.950000000000014,1.2809491335957507e-14,2.3684757858670005e-15,0.41,0.04,0.205,0.185,0.04,0.14008925726121899,-0.12333333333333334
1 -> 2,0.08323100000000003,0.08323099999999993,0.08323099999999997,0.08323099999999999,0.08323100000000003,4.654751537338637e-17,4.625929269271485e-18,76.0,76.0,76.0,76.0,76.0,0.0,0.0,27.950000000000014,27.949999999999985,27.95,27.950000000000003,27.950000000000014,1.2809491335957507e-14,2.3684757858670005e-15,0.41,0.04,0.205,0.185,0.04,0.14008925726121899,-0.12333333333333334
1 -> 2,0.08323100000000003,0.08323099999999993,0.08323099999999997,0.08323099999999999,0.08323100000000003,4.654751537338637e-17,4.625929269271485e-18,76.0,76.0,76.0,76.0,76.0,0.0,0.0,27.950000000000014,27.949999999999985,27.95,27.950000000000003,27.950000000000014,1.2809491335957507e-14,2.3684757858670005e-15,-0.04,-0.52,-0.265,-0.25,-0.52,0.1818653347947321,-0.16
1 -> 2,0.08323100000000003,0.08323099999999993,0.08323099999999997,0.08323099999999999,0.08323100000000003,4.654751537338637e-17,4.625929269271485e-18,76.0,76.0,76.0,76.0,76.0,0.0,0.0,27.950000000000014,27.949999999999985,27.95,27.950000000000003,27.950000000000014,1.2809491335957507e-14,2.3684757858670005e-15,-0.04,-0.52,-0.265,-0.25,-0.52,0.1818653347947321,-0.16
1 -> 2,0.08579200000000002,0.08579199999999995,0.085792,0.08579200000000001,0.08579200000000002,2.943923360032078e-17,9.25185853854297e-18,76.0,76.0,76.0,76.0,76.0,0.0,0.0,27.950000000000014,27.949999999999985,27.95,27.950000000000003,27.950000000000014,1.2809491335957507e-14,2.3684757858670005e-15,0.23,-0.59,-0.2475,-0.315,-0.59,0.31720458697818354,0.2733333333333333
1 -> 2,0.08579200000000002,0.08579199999999995,0.085792,0.08579200000000001,0.08579200000000002,2.943923360032078e-17,9.25185853854297e-18,76.0,76.0,76.0,76.0,76.0,0.0,0.0,27.950000000000014,27.949999999999985,27.95,27.950000000000003,27.950000000000014,1.2809491335957507e-14,2.3684757858670005e-15,0.23,-0.59,-0.2475,-0.315,-0.59,0.31720458697818354,0.2733333333333333
1 -> 2,0.08579200000000002,0.08579199999999995,0.085792,0.08579200000000001,0.08579200000000002,2.943923360032078e-17,9.25185853854297e-18,76.0,76.0,76.0,76.0,76.0,0.0,0.0,27.950000000000014,27.949999999999985,27.95,27.950000000000003,27.950000000000014,1.2809491335957507e-14,2.3684757858670005e-15,0.65,0.14,0.4575,0.52,0.14,0.19201236939322425,-0.1366666666666667
1 -> 2,0.08579200000000002,0.08579199999999995,0.085792,0.08579200000000001,0.08579200000000002,2.943923360032078e-17,9.25185853854297e-18,76.0,76.0,76.0,76.0,76.0,0.0,0.0,27.950000000000014,27.949999999999985,27.95,27.950000000000003,27.950000000000014,1.2809491335957507e-14,2.3684757858670005e-15,0.65,0.14,0.4575,0.52,0.14,0.19201236939322425,-0.1366666666666667
1 -> 2,0.08579200000000002,0.08579199999999995,0.085792,0.08579200000000001,0.08579200000000002,2.943923360032078e-17,9.25185853854297e-18,76.0,76.0,76.0,76.0,76.0,0.0,0.0,27.950000000000014,27.949999999999985,27.95,27.950000000000003,27.950000000000014,1.2809491335957507e-14,2.3684757858670005e-15,-0.23,-0.46,-0.34750000000000003,-0.35,-0.46,0.1077903056865505,-0.006666666666666664
1 -> 2,0.08579200000000002,0.08579199999999995,0.085792,0.08579200000000001,0.08579200000000002,2.943923360032078e-17,9.25185853854297e-18,76.0,76.0,76.0,76.0,76.0,0.0,0.0,27.950000000000014,27.949999999999985,27.95,27.950000000000003,27.950000000000014,1.2809491335957507e-14,2.3684757858670005e-15,-0.23,-0.46,-0.34750000000000003,-0.35,-0.46,0.1077903056865505,-0.006666666666666664
1 -> 2,0.08579200000000002,0.08579199999999995,0.085792,0.08579200000000001,0.08579200000000002,2.943923360032078e-17,9.25185853854297e-18,76.0,76.0,76.0,76.0,76.0,0.0,0.0,27.950000000000014,27.949999999999985,27.95,27.950000000000003,27.950000000000014,1.2809491335957507e-14,2.3684757858670005e-15,0.36,0.03,0.2425,0.29000000000000004,0.03,0.12774486291041218,0.09666666666666666
1 -> 2,0.08579200000000002,0.08579199999999995,0.085792,0.08579200000000001,0.08579200000000002,2.943923360032078e-17,9.25185853854297e-18,76.0,76.0,76.0,76.0,76.0,0.0,0.0,27.950000000000014,27.949999999999985,27.95,27.950000000000003,27.950000000000014,1.2809491335957507e-14,2.3684757858670005e-15,0.36,0.03,0.2425,0.29000000000000004,0.03,0.12774486291041218,0.09666666666666666
1 -> 2,0.08451200000000003,0.08451199999999999,0.08451200000000002,0.08451200000000002,0.08451200000000003,1.8358587643600646e-17,-4.625929269271485e-18,75.67,75.67,75.67,75.67,75.67,0.0,0.0,27.950000000000014,27.949999999999985,27.95,27.950000000000003,27.950000000000014,1.2809491335957507e-14,2.3684757858670005e-15,0.23,0.09,0.13999999999999999,0.12000000000000001,0.09,0.05522680508593631,-0.04666666666666667
1 -> 2,0.08451200000000003,0.08451199999999999,0.08451200000000002,0.08451200000000002,0.08451200000000003,1.8358587643600646e-17,-4.625929269271485e-18,75.67,75.67,75.67,75.67,75.67,0.0,0.0,27.950000000000014,27.949999999999985,27.95,27.950000000000003,27.950000000000014,1.2809491335957507e-14,2.3684757858670005e-15,0.23,0.09,0.13999999999999999,0.12000000000000001,0.09,0.05522680508593631,-0.04666666666666667
1 -> 2,0.08451200000000003,0.08451199999999999,0.08451200000000002,0.08451200000000002,0.08451200000000003,1.8358587643600646e-17,-4.625929269271485e-18,75.67,75.67,75.67,75.67,75.67,0.0,0.0,27.950000000000014,27.949999999999985,27.95,27.950000000000003,27.950000000000014,1.2809491335957507e-14,2.3684757858670005e-15,0.06,-0.28,-0.09250000000000001,-0.07500000000000001,-0.28,0.1298797520786054,-0.11333333333333334
1 -> 2,0.08451200000000003,0.08451199999999999,0.08451200000000002,0.08451200000000002,0.08451200000000003,1.8358587643600646e-17,-4.625929269271485e-18,75.67,75.67,75.67,75.67,75.67,0.0,0.0,27.950000000000014,27.949999999999985,27.95,27.950000000000003,27.950000000000014,1.2809491335957507e-14,2.3684757858670005e-15,0.06,-0.28,-0.09250000000000001,-0.07500000000000001,-0.28,0.1298797520786054,-0.11333333333333334
1 -> 2,0.08451200000000003,0.08451199999999999,0.08451200000000002,0.08451200000000002,0.08451200000000003,1.8358587643600646e-17,-4.625929269271485e-18,75.67,75.67,75.67,75.67,75.67,0.0,0.0,27.950000000000014,27.949999999999985,27.95,27.950000000000003,27.950000000000014,1.2809491335957507e-14,2.3684757858670005e-15,0.0,-0.38,-0.2475,-0.305,-0.38,0.1531951369985353,0.12666666666666668
1 -> 2,0.08451200000000003,0.08451199999999999,0.08451200000000002,0.08451200000000002,0.08451200000000003,1.8358587643600646e-17,-4.625929269271485e-18,75.67,75.67,75.67,75.67,75.67,0.0,0.0,27.950000000000014,27.949999999999985,27.95,27.950000000000003,27.950000000000014,1.2809491335957507e-14,2.3684757858670005e-15,0.0,-0.38,-0.2475,-0.305,-0.38,0.1531951369985353,0.12666666666666668
1 -> 2,0.08451200000000003,0.08451199999999999,0.08451200000000002,0.08451200000000002,0.08451200000000003,1.8358587643600646e-17,-4.625929269271485e-18,75.67,75.67,75.67,75.67,75.67,0.0,0.0,27.950000000000014,27.949999999999985,27.95,27.950000000000003,27.950000000000014,1.2809491335957507e-14,2.3684757858670005e-15,0.4,0.22,0.315,0.32,0.22,0.08077747210701756,-0.01
1 -> 2,0.08451200000000003,0.08451199999999999,0.08451200000000002,0.08451200000000002,0.08451200000000003,1.8358587643600646e-17,-4.625929269271485e-18,75.67,75.67,75.67,75.67,75.67,0.0,0.0,27.950000000000014,27.949999999999985,27.95,27.950000000000003,27.950000000000014,1.2809491335957507e-14,2.3684757858670005e-15,0.4,0.22,0.315,0.32,0.22,0.08077747210701756,-0.01
1 -> 2,0.08195100000000002,0.08195099999999998,0.08195100000000001,0.08195100000000001,0.08195100000000002,1.8358587643600646e-17,-4.625929269271485e-18,75.67,75.67,75.67,75.67,75.67,0.0,0.0,27.950000000000014,27.949999999999985,27.95,27.950000000000003,27.950000000000014,1.2809491335957507e-14,2.3684757858670005e-15,-0.02,-0.31,-0.21000000000000002,-0.255,-0.31,0.11335784048754635,-0.08666666666666668
1 -> 2,0.08195100000000002,0.08195099999999998,0.08195100000000001,0.08195100000000001,0.08195100000000002,1.8358587643600646e-17,-4.625929269271485e-18,75.67,75.67,75.67,75.67,75.67,0.0,0.0,27.950000000000014,27.949999999999985,27.95,27.950000000000003,27.950000000000014,1.2809491335957507e-14,2.3684757858670005e-15,-0.02,-0.31,-0.21000000000000002,-0.255,-0.31,0.11335784048754635,-0.08666666666666668
1 -> 2,0.08195100000000002,0.08195099999999998,0.08195100000000001,0.08195100000000001,0.08195100000000002,1.8358587643600646e-17,-4.625929269271485e-18,75.67,75.67,75.67,75.67,75.67,0.0,0.0,27.950000000000014,27.949999999999985,27.95,27.950000000000003,27.950000000000014,1.2809491335957507e-14,2.3684757858670005e-15,-0.12,-0.21,-0.1475,-0.13,-0.12,0.03699662146737186,0.03
1 -> 2,0.08195100000000002,0.08195099999999998,0.08195100000000001,0.08195100000000001,0.08195100000000002,1.8358587643600646e-17,-4.625929269271485e-18,75.67,75.67,75.67,75.67,75.67,0.0,0.0,27.950000000000014,27.949999999999985,27.95,27.950000000000003,27.950000000000014,1.2809491335957507e-14,2.3684757858670005e-15,-0.12,-0.21,-0.1475,-0.13,-0.12,0.03699662146737186,0.03
1 -> 2,0.08195100000000002,0.08195099999999998,0.08195100000000001,0.08195100000000001,0.08195100000000002,1.8358587643600646e-17,-4.625929269271485e-18,75.67,75.67,75.67,75.67,75.67,0.0,0.0,27.950000000000014,27.949999999999985,27.95,27.950000000000003,27.950000000000014,1.2809491335957507e-14,2.3684757858670005e-15,0.35,-0.06,0.1425,0.14,-0.06,0.15562374497485915,0.1366666666666667
1 -> 2,0.08195100000000002,0.08195099999999998,0.08195100000000001,0.08195100000000001,0.08195100000000002,1.8358587643600646e-17,-4.625929269271485e-18,75.67,75.67,75.67,75.67,75.67,0.0,0.0,27.950000000000014,27.949999999999985,27.95,27.950000000000003,27.950000000000014,1.2809491335957507e-14,2.3684757858670005e-15,0.35,-0.06,0.1425,0.14,-0.06,0.15562374497485915,0.1366666666666667
1 -> 2,0.08195100000000002,0.08195099999999998,0.08195100000000001,0.08195100000000001,0.08195100000000002,1.8358587643600646e-17,-4.625929269271485e-18,75.67,75.67,75.67,75.67,75.67,0.0,0.0,27.950000000000014,27.949999999999985,27.95,27.950000000000003,27.950000000000014,1.2809491335957507e-14,2.3684757858670005e-15,0.39,-0.12,0.175,0.215,-0.12,0.19653244007033546,-0.17
1 -> 2,0.08195100000000002,0.08195099999999998,0.08195100000000001,0.08195100000000001,0.08195100000000002,1.8358587643600646e-17,-4.625929269271485e-18,75.67,75.67,75.67,75.67,75.67,0.0,0.0,27.950000000000014,27.949999999999985,27.95,27.950000000000003,27.950000000000014,1.2809491335957507e-14,2.3684757858670005e-15,0.39,-0.12,0.175,0.215,-0.12,0.19653244007033546,-0.17
1 -> 2,0.08451200000000003,0.08451199999999999,0.08451200000000002,0.08451200000000002,0.08451200000000003,1.8358587643600646e-17,-4.625929269271485e-18,75.67,75.67,75.67,75.67,75.67,0.0,0.0,27.950000000000014,27.949999999999985,27.95,27.950000000000003,27.950000000000014,1.2809491335957507e-14,2.3684757858670005e-15,-0.33,-0.49,-0.4275,-0.445,-0.49,0.060156047077579815,-0.033333333333333326
1 -> 2,0.08451200000000003,0.08451199999999999,0.08451200000000002,0.08451200000000002,0.08451200000000003,1.8358587643600646e-17,-4.625929269271485e-18,75.67,75.67,75.67,75.67,75.67,0.0,0.0,27.950000000000014,27.949999999999985,27.95,27.950000000000003,27.950000000000014,1.2809491335957507e-14,2.3684757858670005e-15,-0.33,-0.49,-0.4275,-0.445,-0.49,0.060156047077579815,-0.033333333333333326
1 -> 2,0.08451200000000003,0.08451199999999999,0.08451200000000002,0.08451200000000002,0.08451200000000003,1.8358587643600646e-17,-4.625929269271485e-18,75.67,75.67,75.67,75.67,75.67,0.0,0.0,27.950000000000014,27.949999999999985,27.95,27.950000000000003,27.950000000000014,1.2809491335957507e-14,2.3684757858670005e-15,-0.2,-0.32,-0.2425,-0.225,-0.32,0.046029881598804924,0.03333333333333333
1 -> 2,0.08451200000000003,0.08451199999999999,0.08451200000000002,0.08451200000000002,0.08451200000000003,1.8358587643600646e-17,-4.625929269271485e-18,75.67,75.67,75.67,75.67,75.67,0.0,0.0,27.950000000000014,27.949999999999985,27.95,27.950000000000003,27.950000000000014,1.2809491335957507e-14,2.3684757858670005e-15,-0.2,-0.32,-0.2425,-0.225,-0.32,0.046029881598804924,0.03333333333333333
1 -> 2,0.08451200000000003,0.08451199999999999,0.08451200000000002,0.08451200000000002,0.08451200000000003,1.8358587643600646e-17,-4.625929269271485e-18,75.67,75.67,75.67,75.67,75.67,0.0,0.0,27.950000000000014,27.949999999999985,27.95,27.950000000000003,27.950000000000014,1.2809491335957507e-14,2.3684757858670005e-15,0.08,-0.24,-0.11749999999999998,-0.155,-0.24,0.12537443918119834,0.10666666666666665
1 -> 2,0.08451200000000003,0.08451199999999999,0.08451200000000002,0.08451200000000002,0.08451200000000003,1.8358587643600646e-17,-4.625929269271485e-18,75.67,75.67,75.67,75.67,75.67,0.0,0.0,27.950000000000014,27.949999999999985,27.95,27.950000000000003,27.950000000000014,1.2809491335957507e-14,2.3684757858670005e-15,0.08,-0.24,-0.11749999999999998,-0.155,-0.24,0.12537443918119834,0.10666666666666665
1 -> 2,0.08451200000000003,0.08451199999999999,0.08451200000000002,0.08451200000000002,0.08451200000000003,1.8358587643600646e-17,-4.625929269271485e-18,75.67,75.67,75.67,75.67,75.67,0.0,0.0,27.950000000000014,27.949999999999985,27.95,27.950000000000003,27.950000000000014,1.2809491335957507e-14,2.3684757858670005e-15,0.25,-0.16,0.10499999999999998,0.165,-0.16,0.16347782724271817,-0.13
1 -> 2,0.08451200000000003,0.08451199999999999,0.08451200000000002,0.08451200000000002,0.08451200000000003,1.8358587643600646e-17,-4.625929269271485e-18,75.67,75.67,75.67,75.67,75.67,0.0,0.0,27.950000000000014,27.949999999999985,27.95,27.950000000000003,27.950000000000014,1.2809491335957507e-14,2.3684757858670005e-15,0.25,-0.16,0.10499999999999998,0.165,-0.16,0.16347782724271817,-0.13
1 -> 2,0.08195100000000002,0.08195099999999998,0.08195100000000001,0.08195100000000001,0.08195100000000002,1.8358587643600646e-17,-4.625929269271485e-18,75.67,75.67,75.67,75.67,75.67,0.0,0.0,27.950000000000014,27.949999999999985,27.95,27.950000000000003,27.950000000000014,1.2809491335957507e-14,2.3684757858670005e-15,-0.42,-0.59,-0.5225,-0.54,-0.59,0.06869315832017042,-0.026666666666666672
1 -> 2,0.08195100000000002,0.08195099999999998,0.08195100000000001,0.08195100000000001,0.08195100000000002,1.8358587643600646e-17,-4.625929269271485e-18,75.67,75.67,75.67,75.67,75.67,0.0,0.0,27.950000000000014,27.949999999999985,27.95,27.950000000000003,27.950000000000014,1.2809491335957507e-14,2.3684757858670005e-15,-0.42,-0.59,-0.5225,-0.54,-0.59,0.06869315832017042,-0.026666666666666672
1 -> 2,0.08195100000000002,0.08195099999999998,0.08195100000000001,0.08195100000000001,0.08195100000000002,1.8358587643600646e-17,-4.625929269271485e-18,75.67,75.67,75.67,75.67,75.67,0.0,0.0,27.950000000000014,27.949999999999985,27.95,27.950000000000003,27.950000000000014,1.2809491335957507e-14,2.3684757858670005e-15,-0.13,-0.37,-0.245,-0.24,-0.37,0.08760707733967615,0.08
1 -> 2,0.08195100000000002,0.08195099999999998,0.08195100000000001,0.08195100000000001,0.08195100000000002,1.8358587643600646e-17,-4.625929269271485e-18,75.67,75.67,75.67,75.67,75.67,0.0,0.0,27.950000000000014,27.949999999999985,27.95,27.950000000000003,27.950000000000014,1.2809491335957507e-14,2.3684757858670005e-15,-0.13,-0.37,-0.245,-0.24,-0.37,0.08760707733967615,0.08
1 -> 2,0.08195100000000002,0.08195099999999998,0.08195100000000001,0.08195100000000001,0.08195100000000002,1.8358587643600646e-17,-4.625929269271485e-18,75.67,75.67,75.67,75.67,75.67,0.0,0.0,27.950000000000014,27.949999999999985,27.95,27.950000000000003,27.950000000000014,1.2809491335957507e-14,2.3684757858670005e-15,0.46,-0.0,0.25,0.27,0.0,0.17578395831246946,0.15333333333333335
1 -> 2,0.08195100000000002,0.08195099999999998,0.08195100000000001,0.08195100000000001,0.08195100000000002,1.8358587643600646e-17,-4.625929269271485e-18,75.67,75.67,75.67,75.67,75.67,0.0,0.0,27.950000000000014,27.949999999999985,27.95,27.950000000000003,27.950000000000014,1.2809491335957507e-14,2.3684757858670005e-15,0.46,-0.0,0.25,0.27,0.0,0.17578395831246946,0.15333333333333335
1 -> 2,0.08195100000000002,0.08195099999999998,0.08195100000000001,0.08195100000000001,0.08195100000000002,1.8358587643600646e-17,-4.625929269271485e-18,75.67,75.67,75.67,75.67,75.67,0.0,0.0,27.950000000000014,27.949999999999985,27.95,27.950000000000003,27.950000000000014,1.2809491335957507e-14,2.3684757858670005e-15,0.42,-0.22,0.10999999999999999,0.12,-0.22,0.24186773244895646,-0.21333333333333335
1 -> 2,0.08195100000000002,0.08195099999999998,0.08195100000000001,0.08195100000000001,0.08195100000000002,1.8358587643600646e-17,-4.625929269271485e-18,75.67,75.67,75.67,75.67,75.67,0.0,0.0,27.950000000000014,27.949999999999985,27.95,27.950000000000003,27.950000000000014,1.2809491335957507e-14,2.3684757858670005e-15,0.42,-0.22,0.10999999999999999,0.12,-0.22,0.24186773244895646,-0.21333333333333335
1 -> 2,0.08579200000000002,0.08579199999999995,0.085792,0.08579200000000001,0.08579200000000002,2.943923360032078e-17,9.25185853854297e-18,75.75,75.75,75.75,75.75,75.75,0.0,0.0,27.950000000000014,27.949999999999985,27.95,27.950000000000003,27.950000000000014,1.2809491335957507e-14,2.3684757858670005e-15,-0.08,-0.34,-0.2475,-0.28500000000000003,-0.34,0.10425329730996521,0.08333333333333333
1 -> 2,0.08579200000000002,0.08579199999999995,0.085792,0.08579200000000001,0.08579200000000002,2.943923360032078e-17,9.25185853854297e-18,75.75,75.75,75.75,75.75,75.75,0.0,0.0,27.950000000000014,27.949999999999985,27.95,27.950000000000003,27.950000000000014,1.2809491335957507e-14,2.3684757858670005e-15,-0.08,-0.34,-0.2475,-0.28500000000000003,-0.34,0.10425329730996521,0.08333333333333333
1 -> 2,0.08579200000000002,0.08579199999999995,0.085792,0.08579200000000001,0.08579200000000002,2.943923360032078e-17,9.25185853854297e-18,75.75,75.75,75.75,75.75,75.75,0.0,0.0,27.950000000000014,27.949999999999985,27.95,27.950000000000003,27.950000000000014,1.2809491335957507e-14,2.3684757858670005e-15,0.85,0.12,0.48750000000000004,0.49,0.12,0.2739867697535777,0.24333333333333332
1 -> 2,0.08579200000000002,0.08579199999999995,0.085792,0.08579200000000001,0.08579200000000002,2.943923360032078e-17,9.25185853854297e-18,75.75,75.75,75.75,75.75,75.75,0.0,0.0,27.950000000000014,27.949999999999985,27.95,27.950000000000003,27.950000000000014,1.2809491335957507e-14,2.3684757858670005e-15,0.85,0.12,0.48750000000000004,0.49,0.12,0.2739867697535777,0.24333333333333332
1 -> 2,0.08579200000000002,0.08579199999999995,0.085792,0.08579200000000001,0.08579200000000002,2.943923360032078e-17,9.25185853854297e-18,75.75,75.75,75.75,75.75,75.75,0.0,0.0,27.950000000000014,27.949999999999985,27.95,27.950000000000003,27.950000000000014,1.2809491335957507e-14,2.3684757858670005e-15,0.95,0.15,0.6275,0.7050000000000001,0.15,0.31067466906717706,-0.26666666666666666
1 -> 2,0.08579200000000002,0.08579199999999995,0.085792,0.08579200000000001,0.08579200000000002,2.943923360032078e-17,9.25185853854297e-18,75.75,75.75,75.75,75.75,75.75,0.0,0.0,27.950000000000014,27.949999999999985,27.95,27.950000000000003,27.950000000000014,1.2809491335957507e-14,2.3684757858670005e-15,0.95,0.15,0.6275,0.7050000000000001,0.15,0.31067466906717706,-0.26666666666666666
1 -> 2,0.08579200000000002,0.08579199999999995,0.085792,0.08579200000000001,0.08579200000000002,2.943923360032078e-17,9.25185853854297e-18,75.75,75.75,75.75,75.75,75.75,0.0,0.0,27.950000000000014,27.949999999999985,27.95,27.950000000000003,27.950000000000014,1.2809491335957507e-14,2.3684757858670005e-15,-0.23,-0.46,-0.37000000000000005,-0.395,-0.46,0.09354143466934854,-0.036666666666666674
1 -> 2,0.08579200000000002,0.08579199999999995,0.085792,0.08579200000000001,0.08579200000000002,2.943923360032078e-17,9.25185853854297e-18,75.75,75.75,75.75,75.75,75.75,0.0,0.0,27.950000000000014,27.949999999999985,27.95,27.950000000000003,27.950000000000014,1.2809491335957507e-14,2.3684757858670005e-15,-0.23,-0.46,-0.37000000000000005,-0.395,-0.46,0.09354143466934854,-0.036666666666666674
1 -> 2,0.08195100000000002,0.08195099999999998,0.08195100000000001,0.08195100000000001,0.08195100000000002,1.8358587643600646e-17,-4.625929269271485e-18,75.75,75.75,75.75,75.75,75.75,0.0,0.0,27.950000000000014,27.949999999999985,27.95,27.950000000000003,27.950000000000014,1.2809491335957507e-14,2.3684757858670005e-15,-0.18,-0.37,-0.2525,-0.22999999999999998,-0.37,0.07224091638399945,-0.05333333333333334
1 -> 2,0.08195100000000002,0.08195099999999998,0.08195100000000001,0.08195100000000001,0.08195100000000002,1.8358587643600646e-17,-4.625929269271485e-18,75.75,75.75,75.75,75.75,75.75,0.0,0.0,27.950000000000014,27.949999999999985,27.95,27.950000000000003,27.950000000000014,1.2809491335957507e-14,2.3684757858670005e-15,-0.18,-0.37,-0.2525,-0.22999999999999998,-0.37,0.07224091638399945,-0.05333333333333334
1 -> 2,0.08195100000000002,0.08195099999999998,0.08195100000000001,0.08195100000000001,0.08195100000000002,1.8358587643600646e-17,-4.625929269271485e-18,75.75,75.75,75.75,75.75,75.75,0.0,0.0,27.950000000000014,27.949999999999985,27.95,27.950000000000003,27.950000000000014,1.2809491335957507e-14,2.3684757858670005e-15,-0.08,-0.41,-0.2625,-0.27999999999999997,-0.41,0.12794041581923984,0.10999999999999999
1 -> 2,0.08195100000000002,0.08195099999999998,0.08195100000000001,0.08195100000000001,0.08195100000000002,1.8358587643600646e-17,-4.625929269271485e-18,75.75,75.75,75.75,75.75,75.75,0.0,0.0,27.950000000000014,27.949999999999985,27.95,27.950000000000003,27.950000000000014,1.2809491335957507e-14,2.3684757858670005e-15,-0.08,-0.41,-0.2625,-0.27999999999999997,-0.41,0.12794041581923984,0.10999999999999999
1 -> 2,0.08195100000000002,0.08195099999999998,0.08195100000000001,0.08195100000000001,0.08195100000000002,1.8358587643600646e-17,-4.625929269271485e-18,75.75,75.75,75.75,75.75,75.75,0.0,0.0,27.950000000000014,27.949999999999985,27.95,27.950000000000003,27.950000000000014,1.2809491335957507e-14,2.3684757858670005e-15,-0.04,-0.33,-0.1825,-0.18,-0.33,0.11098986440211557,-0.09666666666666668
1 -> 2,0.08195100000000002,0.08195099999999998,0.08195100000000001,0.08195100000000001,0.08195100000000002,1.8358587643600646e-17,-4.625929269271485e-18,75.75,75.75,75.75,75.75,75.75,0.0,0.0,27.950000000000014,27.949999999999985,27.95,27.950000000000003,27.950000000000014,1.2809491335957507e-14,2.3684757858670005e-15,-0.04,-0.33,-0.1825,-0.18,-0.33,0.11098986440211557,-0.09666666666666668
1 -> 2,0.08195100000000002,0.08195099999999998,0.08195100000000001,0.08195100000000001,0.08195100000000002,1.8358587643600646e-17,-4.625929269271485e-18,75.75,75.75,75.75,75.75,75.75,0.0,0.0,27.950000000000014,27.949999999999985,27.95,27.950000000000003,27.950000000000014,1.2809491335957507e-14,2.3684757858670005e-15,0.07,-0.32,-0.12250000000000001,-0.12000000000000001,-0.32,0.14905955185763844,0.13
1 -> 2,0.08195100000000002,0.08195099999999998,0.08195100000000001,0.08195100000000001,0.08195100000000002,1.8358587643600646e-17,-4.625929269271485e-18,75.75,75.75,75.75,75.75,75.75,0.0,0.0,27.950000000000014,27.949999999999985,27.95,27.950000000000003,27.950000000000014,1.2809491335957507e-14,2.3684757858670005e-15,0.07,-0.32,-0.12250000000000001,-0.12000000000000001,-0.32,0.14905955185763844,0.13
1 -> 2,0.08579200000000002,0.08579199999999995,0.085792,0.08579200000000001,0.08579200000000002,2.943923360032078e-17,9.25185853854297e-18,75.75,75.75,75.75,75.75,75.75,0.0,0.0,27.950000000000014,27.949999999999985,27.95,27.950000000000003,27.950000000000014,1.2809491335957507e-14,2.3684757858670005e-15,0.06,-0.32,-0.135,-0.14,-0.32,0.14585952145814823,-0.12666666666666668
1 -> 2,0.08579200000000002,0.08579199999999995,0.085792,0.08579200000000001,0.08579200000000002,2.943923360032078e-17,9.25185853854297e-18,75.75,75.75,75.75,75.75,75.75,0.0,0.0,27.950000000000014,27.949999999999985,27.95,27.950000000000003,27.950000000000014,1.2809491335957507e-14,2.3684757858670005e-15,0.06,-0.32,-0.135,-0.14,-0.32,0.14585952145814823,-0.12666666666666668
1 -> 2,0.08579200000000002,0.08579199999999995,0.085792,0.08579200000000001,0.08579200000000002,2.943923360032078e-17,9.25185853854297e-18,75.75,75.75,75.75,75.75,75.75,0.0,0.0,27.950000000000014,27.949999999999985,27.95,27.950000000000003,27.950000000000014,1.2809491335957507e-14,2.3684757858670005e-15,0.51,-0.27,0.1,0.08,-0.27,0.29614185789921693,0.26
1 -> 2,0.08579200000000002,0.08579199999999995,0.085792,0.08579200000000001,0.08579200000000002,2.943923360032078e-17,9.25185853854297e-18,75.75,75.75,75.75,75.75,75.75,0.0,0.0,27.950000000000014,27.949999999999985,27.95,27.950000000000003,27.950000000000014,1.2809491335957507e-14,2.3684757858670005e-15,0.51,-0.27,0.1,0.08,-0.27,0.29614185789921693,0.26
1 -> 2,0.08579200000000002,0.08579199999999995,0.085792,0.08579200000000001,0.08579200000000002,2.943923360032078e-17,9.25185853854297e-18,75.75,75.75,75.75,75.75,75.75,0.0,0.0,27.950000000000014,27.949999999999985,27.95,27.950000000000003,27.950000000000014,1.2809491335957507e-14,2.3684757858670005e-15,0.67,0.43,0.5825,0.615,0.67,0.09883698700385399,-0.08000000000000002
1 -> 2,0.08579200000000002,0.08579199999999995,0.085792,0.08579200000000001,0.08579200000000002,2.943923360032078e-17,9.25185853854297e-18,75.75,75.75,75.75,75.75,75.75,0.0,0.0,27.950000000000014,27.949999999999985,27.95,27.950000000000003,27.950000000000014,1.2809491335957507e-14,2.3684757858670005e-15,0.67,0.43,0.5825,0.615,0.67,0.09883698700385399,-0.08000000000000002
1 -> 2,0.08579200000000002,0.08579199999999995,0.085792,0.08579200000000001,0.08579200000000002,2.943923360032078e-17,9.25185853854297e-18,75.75,75.75,75.75,75.75,75.75,0.0,0.0,27.950000000000014,27.949999999999985,27.95,27.950000000000003,27.950000000000014,1.2809491335957507e-14,2.3684757858670005e-15,0.34,0.11,0.2425,0.26,0.11,0.08584142356694699,-0.07666666666666667
1 -> 2,0.08579200000000002,0.08579199999999995,0.085792,0.08579200000000001,0.08579200000000002,2.943923360032078e-17,9.25185853854297e-18,75.75,75.75,75.75,75.75,75.75,0.0,0.0,27.950000000000014,27.949999999999985,27.95,27.950000000000003,27.950000000000014,1.2809491335957507e-14,2.3684757858670005e-15,0.34,0.11,0.2425,0.26,0.11,0.08584142356694699,-0.07666666666666667
1 -> 2,0.08195100000000002,0.08195099999999998,0.08195100000000001,0.08195100000000001,0.08195100000000002,1.8358587643600646e-17,-4.625929269271485e-18,75.75,75.75,75.75,75.75,75.75,0.0,0.0,27.950000000000014,27.949999999999985,27.95,27.950000000000003,27.950000000000014,1.2809491335957507e-14,2.3684757858670005e-15,-0.01,-0.17,-0.0975,-0.10500000000000001,-0.17,0.06905613658466567,0.01333333333333333
1 -> 2,0.08195100000000002,0.08195099999999998,0.08195100000000001,0.08195100000000001,0.08195100000000002,1.8358587643600646e-17,-4.625929269271485e-18,75.75,75.75,75.75,75.75,75.75,0.0,0.0,27.950000000000014,27.949999999999985,27.95,27.950000000000003,27.950000000000014,1.2809491335957507e-14,2.3684757858670005e-15,-0.01,-0.17,-0.0975,-0.10500000000000001,-0.17,0.06905613658466567,0.01333333333333333
1 -> 2,0.08195100000000002,0.08195099999999998,0.08195100000000001,0.08195100000000001,0.08195100000000002,1.8358587643600646e-17,-4.625929269271485e-18,75.75,75.75,75.75,75.75,75.75,0.0,0.0,27.950000000000014,27.949999999999985,27.95,27.950000000000003,27.950000000000014,1.2809491335957507e-14,2.3684757858670005e-15,0.44,0.23,0.34500000000000003,0.355,0.23,0.08440971508067065,0.023333333333333327
1 -> 2,0.08195100000000002,0.08195099999999998,0.08195100000000001,0.08195100000000001,0.08195100000000002,1.8358587643600646e-17,-4.625929269271485e-18,75.75,75.75,75.75,75.75,75.75,0.0,0.0,27.950000000000014,27.949999999999985,27.95,27.950000000000003,27.950000000000014,1.2809491335957507e-14,2.3684757858670005e-15,0.44,0.23,0.34500000000000003,0.355,0.23,0.08440971508067065,0.023333333333333327
1 -> 2,0.08195100000000002,0.08195099999999998,0.08195100000000001,0.08195100000000001,0.08195100000000002,1.8358587643600646e-17,-4.625929269271485e-18,75.75,75.75,75.75,75.75,75.75,0.0,0.0,27.950000000000014,27.949999999999985,27.95,27.950000000000003,27.950000000000014,1.2809491335957507e-14,2.3684757858670005e-15,0.05,-0.31,-0.1875,-0.245,-0.31,0.1470331595253261,-0.12
1 -> 2,0.08195100000000002,0.08195099999999998,0.08195100000000001,0.08195100000000001,0.08195100000000002,1.8358587643600646e-17,-4.625929269271485e-18,75.75,75.75,75.75,75.75,75.75,0.0,0.0,27.950000000000014,27.949999999999985,27.95,27.950000000000003,27.950000000000014,1.2809491335957507e-14,2.3684757858670005e-15,0.05,-0.31,-0.1875,-0.245,-0.31,0.1470331595253261,-0.12
1 -> 2,0.08195100000000002,0.08195099999999998,0.08195100000000001,0.08195100000000001,0.08195100000000002,1.8358587643600646e-17,-4.625929269271485e-18,75.75,75.75,75.75,75.75,75.75,0.0,0.0,27.950000000000014,27.949999999999985,27.95,27.950000000000003,27.950000000000014,1.2809491335957507e-14,2.3684757858670005e-15,0.25,-0.21,0.019999999999999997,0.020000000000000004,-0.21,0.17219175357722563,0.15333333333333332
1 -> 2,0.08195100000000002,0.08195099999999998,0.08195100000000001,0.08195100000000001,0.08195100000000002,1.8358587643600646e-17,-4.625929269271485e-18,75.75,75.75,75.75,75.75,75.75,0.0,0.0,27.950000000000014,27.949999999999985,27.95,27.950000000000003,27.950000000000014,1.2809491335957507e-14,2.3684757858670005e-15,0.25,-0.21,0.019999999999999997,0.020000000000000004,-0.21,0.17219175357722563,0.15333333333333332
1 -> 2,0.08579200000000002,0.08579199999999995,0.085792,0.08579200000000001,0.08579200000000002,2.943923360032078e-17,9.25185853854297e-18,76.4,76.4,76.4,76.4,76.4,0.0,0.0,27.950000000000014,27.949999999999985,27.95,27.950000000000003,27.950000000000014,1.2809491335957507e-14,2.3684757858670005e-15,0.4,0.28,0.3525,0.365,0.28,0.04437059837324712,-0.026666666666666655
1 -> 2,0.08579200000000002,0.08579199999999995,0.085792,0.08579200000000001,0.08579200000000002,2.943923360032078e-17,9.25185853854297e-18,76.4,76.4,76.4,76.4,76.4,0.0,0.0,27.950000000000014,27.949999999999985,27.95,27.950000000000003,27.950000000000014,1.2809491335957507e-14,2.3684757858670005e-15,0.4,0.28,0.3525,0.365,0.28,0.04437059837324712,-0.026666666666666655
1 -> 2,0.08579200000000002,0.08579199999999995,0.085792,0.08579200000000001,0.08579200000000002,2.943923360032078e-17,9.25185853854297e-18,76.4,76.4,76.4,76.4,76.4,0.0,0.0,27.950000000000014,27.949999999999985,27.95,27.950000000000003,27.950000000000014,1.2809491335957507e-14,2.3684757858670005e-15,0.16,-0.11,0.022500000000000003,0.019999999999999997,-0.11,0.09959292143521045,-0.09000000000000001
1 -> 2,0.08579200000000002,0.08579199999999995,0.085792,0.08579200000000001,0.08579200000000002,2.943923360032078e-17,9.25185853854297e-18,76.4,76.4,76.4,76.4,76.4,0.0,0.0,27.950000000000014,27.949999999999985,27.95,27.950000000000003,27.950000000000014,1.2809491335957507e-14,2.3684757858670005e-15,0.16,-0.11,0.022500000000000003,0.019999999999999997,-0.11,0.09959292143521045,-0.09000000000000001
1 -> 2,0.08579200000000002,0.08579199999999995,0.085792,0.08579200000000001,0.08579200000000002,2.943923360032078e-17,9.25185853854297e-18,76.4,76.4,76.4,76.4,76.4,0.0,0.0,27.950000000000014,27.949999999999985,27.95,27.950000000000003,27.950000000000014,1.2809491335957507e-14,2.3684757858670005e-15,-0.25,-0.94,-0.585,-0.575,-0.94,0.25966324345197567,-0.22999999999999998
1 -> 2,0.08579200000000002,0.08579199999999995,0.085792,0.08579200000000001,0.08579200000000002,2.943923360032078e-17,9.25185853854297e-18,76.4,76.4,76.4,76.4,76.4,0.0,0.0,27.950000000000014,27.949999999999985,27.95,27.950000000000003,27.950000000000014,1.2809491335957507e-14,2.3684757858670005e-15,-0.25,-0.94,-0.585,-0.575,-0.94,0.25966324345197567,-0.22999999999999998
1 -> 2,0.08579200000000002,0.08579199999999995,0.085792,0.08579200000000001,0.08579200000000002,2.943923360032078e-17,9.25185853854297e-18,76.4,76.4,76.4,76.4,76.4,0.0,0.0,27.950000000000014,27.949999999999985,27.95,27.950000000000003,27.950000000000014,1.2809491335957507e-14,2.3684757858670005e-15,-0.78,-1.15,-1.02,-1.0750000000000002,-1.15,0.14404860290887933,0.11000000000000003
1 -> 2,0.08579200000000002,0.08579199999999995,0.085792,0.08579200000000001,0.08579200000000002,2.943923360032078e-17,9.25185853854297e-18,76.4,76.4,76.4,76.4,76.4,0.0,0.0,27.950000000000014,27.949999999999985,27.95,27.950000000000003,27.950000000000014,1.2809491335957507e-14,2.3684757858670005e-15,-0.78,-1.15,-1.02,-1.0750000000000002,-1.15,0.14404860290887933,0.11000000000000003
1 -> 2,0.08195100000000002,0.08195099999999998,0.08195100000000001,0.08195100000000001,0.08195100000000002,1.8358587643600646e-17,-4.625929269271485e-18,76.4,76.4,76.4,76.4,76.4,0.0,0.0,27.950000000000014,27.949999999999985,27.95,27.950000000000003,27.950000000000014,1.2809491335957507e-14,2.3684757858670005e-15,0.66,-0.41,0.16750000000000004,0.21000000000000002,-0.41,0.4036938815488786,0.3566666666666667
1 -> 2,0.08195100000000002,0.08195099999999998,0.08195100000000001,0.08195100000000001,0.08195100000000002,1.8358587643600646e-17,-4.625929269271485e-18,76.4,76.4,76.4,76.4,76.4,0.0,0.0,27.950000000000014,27.949999999999985,27.95,27.950000000000003,27.950000000000014,1.2809491335957507e-14,2.3684757858670005e-15,0.66,-0.41,0.16750000000000004,0.21000000000000002,-0.41,0.4036938815488786,0.3566666666666667
1 -> 2,0.08195100000000002,0.08195099999999998,0.08195100000000001,0.08195100000000001,0.08195100000000002,1.8358587643600646e-17,-4.625929269271485e-18,76.4,76.4,76.4,76.4,76.4,0.0,0.0,27.950000000000014,27.949999999999985,27.95,27.950000000000003,27.950000000000014,1.2809491335957507e-14,2.3684757858670005e-15,0.76,0.72,0.7475,0.755,0.76,0.016393596310755015,0.0
1 -> 2,0.08195100000000002,0.08195099999999998,0.08195100000000001,0.08195100000000001,0.08195100000000002,1.8358587643600646e-17,-4.625929269271485e-18,76.4,76.4,76.4,76.4,76.4,0.0,0.0,27.950000000000014,27.949999999999985,27.95,27.950000000000003,27.950000000000014,1.2809491335957507e-14,2.3684757858670005e-15,0.76,0.72,0.7475,0.755,0.76,0.016393596310755015,0.0
1 -> 2,0.08195100000000002,0.08195099999999998,0.08195100000000001,0.08195100000000001,0.08195100000000002,1.8358587643600646e-17,-4.625929269271485e-18,76.4,76.4,76.4,76.4,76.4,0.0,0.0,27.950000000000014,27.949999999999985,27.95,27.950000000000003,27.950000000000014,1.2809491335957507e-14,2.3684757858670005e-15,1.22,0.9,1.1025,1.145,0.9,0.12930100540985748,0.10666666666666665
1 -> 2,0.08195100000000002,0.08195099999999998,0.08195100000000001,0.08195100000000001,0.08195100000000002,1.8358587643600646e-17,-4.625929269271485e-18,76.4,76.4,76.4,76.4,76.4,0.0,0.0,27.950000000000014,27.949999999999985,27.95,27.950000000000003,27.950000000000014,1.2809491335957507e-14,2.3684757858670005e-15,1.22,0.9,1.1025,1.145,0.9,0.12930100540985748,0.10666666666666665
1 -> 2,0.08195100000000002,0.08195099999999998,0.08195100000000001,0.08195100000000001,0.08195100000000002,1.8358587643600646e-17,-4.625929269271485e-18,76.4,76.4,76.4,76.4,76.4,0.0,0.0,27.950000000000014,27.949999999999985,27.95,27.950000000000003,27.950000000000014,1.2809491335957507e-14,2.3684757858670005e-15,1.11,0.61,0.8574999999999999,0.855,0.61,0.18673175948402568,-0.1666666666666667
1 -> 2,0.08195100000000002,0.08195099999999998,0.08195100000000001,0.08195100000000001,0.08195100000000002,1.8358587643600646e-17,-4.625929269271485e-18,76.4,76.4,76.4,76.4,76.4,0.0,0.0,27.950000000000014,27.949999999999985,27.95,27.950000000000003,27.950000000000014,1.2809491335957507e-14,2.3684757858670005e-15,1.11,0.61,0.8574999999999999,0.855,0.61,0.18673175948402568,-0.1666666666666667
1 -> 2,0.08579200000000002,0.08579199999999995,0.085792,0.08579200000000001,0.08579200000000002,2.943923360032078e-17,9.25185853854297e-18,76.4,76.4,76.4,76.4,76.4,0.0,0.0,27.950000000000014,27.949999999999985,27.95,27.950000000000003,27.950000000000014,1.2809491335957507e-14,2.3684757858670005e-15,0.43,-0.59,-0.05,-0.020000000000000004,-0.59,0.3836013555763327,-0.34
1 -> 2,0.08579200000000002,0.08579199999999995,0.085792,0.08579200000000001,0.08579200000000002,2.943923360032078e-17,9.25185853854297e-18,76.4,76.4,76.4,76.4,76.4,0.0,0.0,27.950000000000014,27.949999999999985,27.95,27.950000000000003,27.950000000000014,1.2809491335957507e-14,2.3684757858670005e-15,0.43,-0.59,-0.05,-0.020000000000000004,-0.59,0.3836013555763327,-0.34
1 -> 2,0.08579200000000002,0.08579199999999995,0.085792,0.08579200000000001,0.08579200000000002,2.943923360032078e-17,9.25185853854297e-18,76.4,76.4,76.4,76.4,76.4,0.0,0.0,27.950000000000014,27.949999999999985,27.95,27.950000000000003,27.950000000000014,1.2809491335957507e-14,2.3684757858670005e-15,-0.39,-0.96,-0.7525000000000001,-0.8300000000000001,-0.96,0.21878928218722232,0.16333333333333333
1 -> 2,0.08579200000000002,0.08579199999999995,0.085792,0.08579200000000001,0.08579200000000002,2.943923360032078e-17,9.25185853854297e-18,76.4,76.4,76.4,76.4,76.4,0.0,0.0,27.950000000000014,27.949999999999985,27.95,27.950000000000003,27.950000000000014,1.2809491335957507e-14,2.3684757858670005e-15,-0.39,-0.96,-0.7525000000000001,-0.8300000000000001,-0.96,0.21878928218722232,0.16333333333333333
1 -> 2,0.08579200000000002,0.08579199999999995,0.085792,0.08579200000000001,0.08579200000000002,2.943923360032078e-17,9.25185853854297e-18,76.4,76.4,76.4,76.4,76.4,0.0,0.0,27.950000000000014,27.949999999999985,27.95,27.950000000000003,27.950000000000014,1.2809491335957507e-14,2.3684757858670005e-15,0.98,0.11,0.635,0.725,0.11,0.338710791088799,0.29
1 -> 2,0.08579200000000002,0.08579199999999995,0.085792,0.08579200000000001,0.08579200000000002,2.943923360032078e-17,9.25185853854297e-18,76.4,76.4,76.4,76.4,76.4,0.0,0.0,27.950000000000014,27.949999999999985,27.95,27.950000000000003,27.950000000000014,1.2809491335957507e-14,2.3684757858670005e-15,0.98,0.11,0.635,0.725,0.11,0.338710791088799,0.29
1 -> 2,0.08579200000000002,0.08579199999999995,0.085792,0.08579200000000001,0.08579200000000002,2.943923360032078e-17,9.25185853854297e-18,76.4,76.4,76.4,76.4,76.4,0.0,0.0,27.950000000000014,27.949999999999985,27.95,27.950000000000003,27.950000000000014,1.2809491335957507e-14,2.3684757858670005e-15,0.86,-0.3,0.31250000000000006,0.34500000000000003,-0.3,0.4361980628109208,-0.38666666666666666
1 -> 2,0.08579200000000002,0.08579199999999995,0.085792,0.08579200000000001,0.08579200000000002,2.943923360032078e-17,9.25185853854297e-18,76.4,76.4,76.4,76.4,76.4,0.0,0.0,27.950000000000014,27.949999999999985,27.95,27.950000000000003,27.950000000000014,1.2809491335957507e-14,2.3684757858670005e-15,0.86,-0.3,0.31250000000000006,0.34500000000000003,-0.3,0.4361980628109208,-0.38666666666666666
1 -> 2,0.08195100000000002,0.08195099999999998,0.08195100000000001,0.08195100000000001,0.08195100000000002,1.8358587643600646e-17,-4.625929269271485e-18,76.4,76.4,76.4,76.4,76.4,0.0,0.0,27.950000000000014,27.949999999999985,27.95,27.950000000000003,27.950000000000014,1.2809491335957507e-14,2.3684757858670005e-15,-0.72,-1.57,-1.1875,-1.23,-1.57,0.3215101087057762,-0.2833333333333334
1 -> 2,0.08195100000000002,0.08195099999999998,0.08195100000000001,0.08195100000000001,0.08195100000000002,1.8358587643600646e-17,-4.625929269271485e-18,76.4,76.4,76.4,76.4,76.4,0.0,0.0,27.950000000000014,27.949999999999985,27.95,27.950000000000003,27.950000000000014,1.2809491335957507e-14,2.3684757858670005e-15,-0.72,-1.57,-1.1875,-1.23,-1.57,0.3215101087057762,-0.2833333333333334
1 -> 2,0.08195100000000002,0.08195099999999998,0.08195100000000001,0.08195100000000001,0.08195100000000002,1.8358587643600646e-17,-4.625929269271485e-18,76.4,76.4,76.4,76.4,76.4,0.0,0.0,27.950000000000014,27.949999999999985,27.95,27.950000000000003,27.950000000000014,1.2809491335957507e-14,2.3684757858670005e-15,-0.32,-1.58,-1.0475,-1.145,-1.58,0.48297903681215815,0.4200000000000001
1 -> 2,0.08195100000000002,0.08195099999999998,0.08195100000000001,0.08195100000000001,0.08195100000000002,1.8358587643600646e-17,-4.625929269271485e-18,76.4,76.4,76.4,76.4,76.4,0.0,0.0,27.950000000000014,27.949999999999985,27.95,27.950000000000003,27.950000000000014,1.2809491335957507e-14,2.3684757858670005e-15,-0.32,-1.58,-1.0475,-1.145,-1.58,0.48297903681215815,0.4200000000000001
1 -> 2,0.08195100000000002,0.08195099999999998,0.08195100000000001,0.08195100000000001,0.08195100000000002,1.8358587643600646e-17,-4.625929269271485e-18,76.4,76.4,76.4,76.4,76.4,0.0,0.0,27.950000000000014,27.949999999999985,27.95,27.950000000000003,27.950000000000014,1.2809491335957507e-14,2.3684757858670005e-15,0.69,0.26,0.515,0.5549999999999999,0.26,0.16590660023037057,0.07333333333333332
1 -> 2,0.08195100000000002,0.08195099999999998,0.08195100000000001,0.08195100000000001,0.08195100000000002,1.8358587643600646e-17,-4.625929269271485e-18,76.4,76.4,76.4,76.4,76.4,0.0,0.0,27.950000000000014,27.949999999999985,27.95,27.950000000000003,27.950000000000014,1.2809491335957507e-14,2.3684757858670005e-15,0.69,0.26,0.515,0.5549999999999999,0.26,0.16590660023037057,0.07333333333333332
1 -> 2,0.08195100000000002,0.08195099999999998,0.08195100000000001,0.08195100000000001,0.08195100000000002,1.8358587643600646e-17,-4.625929269271485e-18,76.4,76.4,76.4,76.4,76.4,0.0,0.0,27.950000000000014,27.949999999999985,27.95,27.950000000000003,27.950000000000014,1.2809491335957507e-14,2.3684757858670005e-15,0.14,-0.27,-0.11500000000000002,-0.165,-0.27,0.15337861650177967,-0.10333333333333335
1 -> 2,0.08195100000000002,0.08195099999999998,0.08195100000000001,0.08195100000000001,0.08195100000000002,1.8358587643600646e-17,-4.625929269271485e-18,76.4,76.4,76.4,76.4,76.4,0.0,0.0,27.950000000000014,27.949999999999985,27.95,27.950000000000003,27.950000000000014,1.2809491335957507e-14,2.3684757858670005e-15,0.14,-0.27,-0.11500000000000002,-0.165,-0.27,0.15337861650177967,-0.10333333333333335
1 -> 2,0.08579200000000002,0.08579199999999995,0.085792,0.08579200000000001,0.08579200000000002,2.943923360032078e-17,9.25185853854297e-18,77.67,77.67,77.67,77.67,77.67,0.0,0.0,27.970000000000013,27.97,27.970000000000006,27.970000000000006,27.970000000000013,6.4047456679787536e-15,1.1842378929335002e-15,0.6,0.07,0.3875,0.44000000000000006,0.07,0.207047699818182,0.17666666666666667
1 -> 2,0.08579200000000002,0.08579199999999995,0.085792,0.08579200000000001,0.08579200000000002,2.943923360032078e-17,9.25185853854297e-18,77.67,77.67,77.67,77.67,77.67,0.0,0.0,27.970000000000013,27.97,27.970000000000006,27.970000000000006,27.970000000000013,6.4047456679787536e-15,1.1842378929335002e-15,0.6,0.07,0.3875,0.44000000000000006,0.07,0.207047699818182,0.17666666666666667
1 -> 2,0.08579200000000002,0.08579199999999995,0.085792,0.08579200000000001,0.08579200000000002,2.943923360032078e-17,9.25185853854297e-18,77.67,77.67,77.67,77.67,77.67,0.0,0.0,27.970000000000013,27.97,27.970000000000006,27.970000000000006,27.970000000000013,6.4047456679787536e-15,1.1842378929335002e-15,0.52,-0.21,0.17000000000000004,0.185,-0.21,0.2755902755904134,-0.24333333333333332
1 -> 2,0.08579200000000002,0.08579199999999995,0.085792,0.08579200000000001,0.08579200000000002,2.943923360032078e-17,9.25185853854297e-18,77.67,77.67,77.67,77.67,77.67,0.0,0.0,27.970000000000013,27.97,27.970000000000006,27.970000000000006,27.970000000000013,6.4047456679787536e-15,1.1842378929335002e-15,0.52,-0.21,0.17000000000000004,0.185,-0.21,0.2755902755904134,-0.24333333333333332
1 -> 2,0.08579200000000002,0.08579199999999995,0.085792,0.08579200000000001,0.08579200000000002,2.943923360032078e-17,9.25185853854297e-18,77.67,77.67,77.67,77.67,77.67,0.0,0.0,27.970000000000013,27.97,27.970000000000006,27.970000000000006,27.970000000000013,6.4047456679787536e-15,1.1842378929335002e-15,0.05,-0.42,-0.255,-0.325,-0.42,0.18607794065928393,0.14666666666666667
1 -> 2,0.08579200000000002,0.08579199999999995,0.085792,0.08579200000000001,0.08579200000000002,2.943923360032078e-17,9.25185853854297e-18,77.67,77.67,77.67,77.67,77.67,0.0,0.0,27.970000000000013,27.97,27.970000000000006,27.970000000000006,27.970000000000013,6.4047456679787536e-15,1.1842378929335002e-15,0.05,-0.42,-0.255,-0.325,-0.42,0.18607794065928393,0.14666666666666667
1 -> 2,0.08579200000000002,0.08579199999999995,0.085792,0.08579200000000001,0.08579200000000002,2.943923360032078e-17,9.25185853854297e-18,77.67,77.67,77.67,77.67,77.67,0.0,0.0,27.970000000000013,27.97,27.970000000000006,27.970000000000006,27.970000000000013,6.4047456679787536e-15,1.1842378929335002e-15,0.88,0.42,0.715,0.78,0.42,0.17741194999210172,0.13333333333333333
1 -> 2,0.08579200000000002,0.08579199999999995,0.085792,0.08579200000000001,0.08579200000000002,2.943923360032078e-17,9.25185853854297e-18,77.67,77.67,77.67,77.67,77.67,0.0,0.0,27.970000000000013,27.97,27.970000000000006,27.970000000000006,27.970000000000013,6.4047456679787536e-15,1.1842378929335002e-15,0.88,0.42,0.715,0.78,0.42,0.17741194999210172,0.13333333333333333
1 -> 2,0.07939000000000003,0.07938999999999996,0.07939,0.07939000000000002,0.07939000000000003,2.8609792490763984e-17,1.3877787807814457e-17,77.67,77.67,77.67,77.67,77.67,0.0,0.0,27.970000000000013,27.97,27.970000000000006,27.970000000000006,27.970000000000013,6.4047456679787536e-15,1.1842378929335002e-15,0.57,-0.32,0.09249999999999999,0.06,-0.32,0.33595944695751595,-0.29666666666666663
1 -> 2,0.07939000000000003,0.07938999999999996,0.07939,0.07939000000000002,0.07939000000000003,2.8609792490763984e-17,1.3877787807814457e-17,77.67,77.67,77.67,77.67,77.67,0.0,0.0,27.970000000000013,27.97,27.970000000000006,27.970000000000006,27.970000000000013,6.4047456679787536e-15,1.1842378929335002e-15,0.57,-0.32,0.09249999999999999,0.06,-0.32,0.33595944695751595,-0.29666666666666663
1 -> 2,0.07939000000000003,0.07938999999999996,0.07939,0.07939000000000002,0.07939000000000003,2.8609792490763984e-17,1.3877787807814457e-17,77.67,77.67,77.67,77.67,77.67,0.0,0.0,27.970000000000013,27.97,27.970000000000006,27.970000000000006,27.970000000000013,6.4047456679787536e-15,1.1842378929335002e-15,-0.06,-0.4,-0.25,-0.27,-0.4,0.13152946437965907,0.11333333333333334
1 -> 2,0.07939000000000003,0.07938999999999996,0.07939,0.07939000000000002,0.07939000000000003,2.8609792490763984e-17,1.3877787807814457e-17,77.67,77.67,77.67,77.67,77.67,0.0,0.0,27.970000000000013,27.97,27.970000000000006,27.970000000000006,27.970000000000013,6.4047456679787536e-15,1.1842378929335002e-15,-0.06,-0.4,-0.25,-0.27,-0.4,0.13152946437965907,0.11333333333333334
1 -> 2,0.07939000000000003,0.07938999999999996,0.07939,0.07939000000000002,0.07939000000000003,2.8609792490763984e-17,1.3877787807814457e-17,77.67,77.67,77.67,77.67,77.67,0.0,0.0,27.970000000000013,27.97,27.970000000000006,27.970000000000006,27.970000000000013,6.4047456679787536e-15,1.1842378929335002e-15,-0.0,-0.41,-0.175,-0.14500000000000002,-0.41,0.15976545308670456,-0.13666666666666666
1 -> 2,0.07939000000000003,0.07938999999999996,0.07939,0.07939000000000002,0.07939000000000003,2.8609792490763984e-17,1.3877787807814457e-17,77.67,77.67,77.67,77.67,77.67,0.0,0.0,27.970000000000013,27.97,27.970000000000006,27.970000000000006,27.970000000000013,6.4047456679787536e-15,1.1842378929335002e-15,-0.0,-0.41,-0.175,-0.14500000000000002,-0.41,0.15976545308670456,-0.13666666666666666
1 -> 2,0.07939000000000003,0.07938999999999996,0.07939,0.07939000000000002,0.07939000000000003,2.8609792490763984e-17,1.3877787807814457e-17,77.67,77.67,77.67,77.67,77.67,0.0,0.0,27.970000000000013,27.97,27.970000000000006,27.970000000000006,27.970000000000013,6.4047456679787536e-15,1.1842378929335002e-15,-0.0,-0.52,-0.32,-0.38,-0.52,0.20591260281974,0.17333333333333334
1 -> 2,0.07939000000000003,0.07938999999999996,0.07939,0.07939000000000002,0.07939000000000003,2.8609792490763984e-17,1.3877787807814457e-17,77.67,77.67,77.67,77.67,77.67,0.0,0.0,27.970000000000013,27.97,27.970000000000006,27.970000000000006,27.970000000000013,6.4047456679787536e-15,1.1842378929335002e-15,-0.0,-0.52,-0.32,-0.38,-0.52,0.20591260281974,0.17333333333333334
1 -> 2,0.08195100000000002,0.08195099999999998,0.08195100000000001,0.08195100000000001,0.08195100000000002,1.8358587643600646e-17,-4.625929269271485e-18,77.67,77.67,77.67,77.67,77.67,0.0,0.0,27.970000000000013,27.97,27.970000000000006,27.970000000000006,27.970000000000013,6.4047456679787536e-15,1.1842378929335002e-15,0.48,0.27,0.395,0.41500000000000004,0.27,0.07889866919029749,0.04
1 -> 2,0.08195100000000002,0.08195099999999998,0.08195100000000001,0.08195100000000001,0.08195100000000002,1.8358587643600646e-17,-4.625929269271485e-18,77.67,77.67,77.67,77.67,77.67,0.0,0.0,27.970000000000013,27.97,27.970000000000006,27.970000000000006,27.970000000000013,6.4047456679787536e-15,1.1842378929335002e-15,0.48,0.27,0.395,0.41500000000000004,0.27,0.07889866919029749,0.04
1 -> 2,0.08195100000000002,0.08195099999999998,0.08195100000000001,0.08195100000000001,0.08195100000000002,1.8358587643600646e-17,-4.625929269271485e-18,77.67,77.67,77.67,77.67,77.67,0.0,0.0,27.970000000000013,27.97,27.970000000000006,27.970000000000006,27.970000000000013,6.4047456679787536e-15,1.1842378929335002e-15,0.2,-0.7,-0.22749999999999998,-0.205,-0.7,0.33729623478479565,-0.3
1 -> 2,0.08195100000000002,0.08195099999999998,0.08195100000000001,0.08195100000000001,0.08195100000000002,1.8358587643600646e-17,-4.625929269271485e-18,77.67,77.67,77.67,77.67,77.67,0.0,0.0,27.970000000000013,27.97,27.970000000000006,27.970000000000006,27.970000000000013,6.4047456679787536e-15,1.1842378929335002e-15,0.2,-0.7,-0.22749999999999998,-0.205,-0.7,0.33729623478479565,-0.3
1 -> 2,0.08195100000000002,0.08195099999999998,0.08195100000000001,0.08195100000000001,0.08195100000000002,1.8358587643600646e-17,-4.625929269271485e-18,77.67,77.67,77.67,77.67,77.67,0.0,0.0,27.970000000000013,27.97,27.970000000000006,27.970000000000006,27.970000000000013,6.4047456679787536e-15,1.1842378929335002e-15,-1.0,-1.21,-1.105,-1.105,-1.21,0.1001249219725039,0.003333333333333336
1 -> 2,0.08195100000000002,0.08195099999999998,0.08195100000000001,0.08195100000000001,0.08195100000000002,1.8358587643600646e-17,-4.625929269271485e-18,77.67,77.67,77.67,77.67,77.67,0.0,0.0,27.970000000000013,27.97,27.970000000000006,27.970000000000006,27.970000000000013,6.4047456679787536e-15,1.1842378929335002e-15,-1.0,-1.21,-1.105,-1.105,-1.21,0.1001249219725039,0.003333333333333336
1 -> 2,0.08195100000000002,0.08195099999999998,0.08195100000000001,0.08195100000000001,0.08195100000000002,1.8358587643600646e-17,-4.625929269271485e-18,77.67,77.67,77.67,77.67,77.67,0.0,0.0,27.970000000000013,27.97,27.970000000000006,27.970000000000006,27.970000000000013,6.4047456679787536e-15,1.1842378929335002e-15,0.33,-0.62,-0.0775,-0.009999999999999995,-0.62,0.36547058705181734,0.3166666666666667
1 -> 2,0.08195100000000002,0.08195099999999998,0.08195100000000001,0.08195100000000001,0.08195100000000002,1.8358587643600646e-17,-4.625929269271485e-18,77.67,77.67,77.67,77.67,77.67,0.0,0.0,27.970000000000013,27.97,27.970000000000006,27.970000000000006,27.970000000000013,6.4047456679787536e-15,1.1842378929335002e-15,0.33,-0.62,-0.0775,-0.009999999999999995,-0.62,0.36547058705181734,0.3166666666666667
1 -> 2,0.08579200000000002,0.08579199999999995,0.085792,0.08579200000000001,0.08579200000000002,2.943923360032078e-17,9.25185853854297e-18,77.67,77.67,77.67,77.67,77.67,0.0,0.0,27.970000000000013,27.97,27.970000000000006,27.970000000000006,27.970000000000013,6.4047456679787536e-15,1.1842378929335002e-15,0.26,-0.94,-0.3025,-0.265,-0.94,0.4546633369868303,-0.39999999999999997
1 -> 2,0.08579200000000002,0.08579199999999995,0.085792,0.08579200000000001,0.08579200000000002,2.943923360032078e-17,9.25185853854297e-18,77.67,77.67,77.67,77.67,77.67,0.0,0.0,27.970000000000013,27.97,27.970000000000006,27.970000000000006,27.970000000000013,6.4047456679787536e-15,1.1842378929335002e-15,0.26,-0.94,-0.3025,-0.265,-0.94,0.4546633369868303,-0.39999999999999997
1 -> 2,0.08579200000000002,0.08579199999999995,0.085792,0.08579200000000001,0.08579200000000002,2.943923360032078e-17,9.25185853854297e-18,77.67,77.67,77.67,77.67,77.67,0.0,0.0,27.970000000000013,27.97,27.970000000000006,27.970000000000006,27.970000000000013,6.4047456679787536e-15,1.1842378929335002e-15,-0.46,-1.3,-1.0075,-1.135,-1.3,0.3350652921446804,0.26666666666666666
1 -> 2,0.08579200000000002,0.08579199999999995,0.085792,0.08579200000000001,0.08579200000000002,2.943923360032078e-17,9.25185853854297e-18,77.67,77.67,77.67,77.67,77.67,0.0,0.0,27.970000000000013,27.97,27.970000000000006,27.970000000000006,27.970000000000013,6.4047456679787536e-15,1.1842378929335002e-15,-0.46,-1.3,-1.0075,-1.135,-1.3,0.3350652921446804,0.26666666666666666
1 -> 2,0.08579200000000002,0.08579199999999995,0.085792,0.08579200000000001,0.08579200000000002,2.943923360032078e-17,9.25185853854297e-18,77.67,77.67,77.67,77.67,77.67,0.0,0.0,27.970000000000013,27.97,27.970000000000006,27.970000000000006,27.970000000000013,6.4047456679787536e-15,1.1842378929335002e-15,1.01,0.19,0.73,0.86,0.19,0.328861673048107,0.26333333333333336
1 -> 2,0.08579200000000002,0.08579199999999995,0.085792,0.08579200000000001,0.08579200000000002,2.943923360032078e-17,9.25185853854297e-18,77.67,77.67,77.67,77.67,77.67,0.0,0.0,27.970000000000013,27.97,27.970000000000006,27.970000000000006,27.970000000000013,6.4047456679787536e-15,1.1842378929335002e-15,1.01,0.19,0.73,0.86,0.19,0.328861673048107,0.26333333333333336
1 -> 2,0.08579200000000002,0.08579199999999995,0.085792,0.08579200000000001,0.08579200000000002,2.943923360032078e-17,9.25185853854297e-18,77.67,77.67,77.67,77.67,77.67,0.0,0.0,27.970000000000013,27.97,27.970000000000006,27.970000000000006,27.970000000000013,6.4047456679787536e-15,1.1842378929335002e-15,0.72,0.07,0.3375,0.28,0.07,0.2516321720289359,-0.21666666666666665
1 -> 2,0.08579200000000002,0.08579199999999995,0.085792,0.08579200000000001,0.08579200000000002,2.943923360032078e-17,9.25185853854297e-18,77.67,77.67,77.67,77.67,77.67,0.0,0.0,27.970000000000013,27.97,27.970000000000006,27.970000000000006,27.970000000000013,6.4047456679787536e-15,1.1842378929335002e-15,0.72,0.07,0.3375,0.28,0.07,0.2516321720289359,-0.21666666666666665
1 -> 2,0.08195100000000002,0.08195099999999998,0.08195100000000001,0.08195100000000001,0.08195100000000002,1.8358587643600646e-17,-4.625929269271485e-18,79.0,79.0,79.0,79.0,79.0,0.0,0.0,27.970000000000013,27.97,27.970000000000006,27.970000000000006,27.970000000000013,6.4047456679787536e-15,1.1842378929335002e-15,0.14,0.08,0.115,0.12,0.08,0.022912878474779203,0.020000000000000004
1 -> 2,0.08195100000000002,0.08195099999999998,0.08195100000000001,0.08195100000000001,0.08195100000000002,1.8358587643600646e-17,-4.625929269271485e-18,79.0,79.0,79.0,79.0,79.0,0.0,0.0,27.970000000000013,27.97,27.970000000000006,27.970000000000006,27.970000000000013,6.4047456679787536e-15,1.1842378929335002e-15,0.14,0.08,0.115,0.12,0.08,0.022912878474779203,0.020000000000000004
1 -> 2,0.08195100000000002,0.08195099999999998,0.08195100000000001,0.08195100000000001,0.08195100000000002,1.8358587643600646e-17,-4.625929269271485e-18,79.0,79.0,79.0,79.0,79.0,0.0,0.0,27.970000000000013,27.97,27.970000000000006,27.970000000000006,27.970000000000013,6.4047456679787536e-15,1.1842378929335002e-15,0.53,0.18,0.35,0.345,0.18,0.13209844813622906,0.11666666666666668
1 -> 2,0.08195100000000002,0.08195099999999998,0.08195100000000001,0.08195100000000001,0.08195100000000002,1.8358587643600646e-17,-4.625929269271485e-18,79.0,79.0,79.0,79.0,79.0,0.0,0.0,27.970000000000013,27.97,27.970000000000006,27.970000000000006,27.970000000000013,6.4047456679787536e-15,1.1842378929335002e-15,0.53,0.18,0.35,0.345,0.18,0.13209844813622906,0.11666666666666668
1 -> 2,0.08195100000000002,0.08195099999999998,0.08195100000000001,0.08195100000000001,0.08195100000000002,1.8358587643600646e-17,-4.625929269271485e-18,79.0,79.0,79.0,79.0,79.0,0.0,0.0,27.970000000000013,27.97,27.970000000000006,27.970000000000006,27.970000000000013,6.4047456679787536e-15,1.1842378929335002e-15,0.57,0.46,0.5225000000000001,0.53,0.46,0.04205650960315179,-0.036666666666666646
1 -> 2,0.08195100000000002,0.08195099999999998,0.08195100000000001,0.08195100000000001,0.08195100000000002,1.8358587643600646e-17,-4.625929269271485e-18,79.0,79.0,79.0,79.0,79.0,0.0,0.0,27.970000000000013,27.97,27.970000000000006,27.970000000000006,27.970000000000013,6.4047456679787536e-15,1.1842378929335002e-15,0.57,0.46,0.5225000000000001,0.53,0.46,0.04205650960315179,-0.036666666666666646
1 -> 2,0.08195100000000002,0.08195099999999998,0.08195100000000001,0.08195100000000001,0.08195100000000002,1.8358587643600646e-17,-4.625929269271485e-18,79.0,79.0,79.0,79.0,79.0,0.0,0.0,27.970000000000013,27.97,27.970000000000006,27.970000000000006,27.970000000000013,6.4047456679787536e-15,1.1842378929335002e-15,0.42,0.07,0.2675,0.29,0.07,0.13273563952458284,-0.11666666666666665
1 -> 2,0.08195100000000002,0.08195099999999998,0.08195100000000001,0.08195100000000001,0.08195100000000002,1.8358587643600646e-17,-4.625929269271485e-18,79.0,79.0,79.0,79.0,79.0,0.0,0.0,27.970000000000013,27.97,27.970000000000006,27.970000000000006,27.970000000000013,6.4047456679787536e-15,1.1842378929335002e-15,0.42,0.07,0.2675,0.29,0.07,0.13273563952458284,-0.11666666666666665
1 -> 2,0.08451200000000003,0.08451199999999999,0.08451200000000002,0.08451200000000002,0.08451200000000003,1.8358587643600646e-17,-4.625929269271485e-18,79.0,79.0,79.0,79.0,79.0,0.0,0.0,27.970000000000013,27.97,27.970000000000006,27.970000000000006,27.970000000000013,6.4047456679787536e-15,1.1842378929335002e-15,-0.08,-0.43,-0.2525,-0.25,-0.43,0.12871965661856002,-0.11666666666666665
1 -> 2,0.08451200000000003,0.08451199999999999,0.08451200000000002,0.08451200000000002,0.08451200000000003,1.8358587643600646e-17,-4.625929269271485e-18,79.0,79.0,79.0,79.0,79.0,0.0,0.0,27.970000000000013,27.97,27.970000000000006,27.970000000000006,27.970000000000013,6.4047456679787536e-15,1.1842378929335002e-15,-0.08,-0.43,-0.2525,-0.25,-0.43,0.12871965661856002,-0.11666666666666665
1 -> 2,0.08451200000000003,0.08451199999999999,0.08451200000000002,0.08451200000000002,0.08451200000000003,1.8358587643600646e-17,-4.625929269271485e-18,79.0,79.0,79.0,79.0,79.0,0.0,0.0,27.970000000000013,27.97,27.970000000000006,27.970000000000006,27.970000000000013,6.4047456679787536e-15,1.1842378929335002e-15,-0.64,-1.14,-0.95,-1.01,-1.14,0.2022374841615668,-0.16666666666666663
1 -> 2,0.08451200000000003,0.08451199999999999,0.08451200000000002,0.08451200000000002,0.08451200000000003,1.8358587643600646e-17,-4.625929269271485e-18,79.0,79.0,79.0,79.0,79.0,0.0,0.0,27.970000000000013,27.97,27.970000000000006,27.970000000000006,27.970000000000013,6.4047456679787536e-15,1.1842378929335002e-15,-0.64,-1.14,-0.95,-1.01,-1.14,0.2022374841615668,-0.16666666666666663
1 -> 2,0.08451200000000003,0.08451199999999999,0.08451200000000002,0.08451200000000002,0.08451200000000003,1.8358587643600646e-17,-4.625929269271485e-18,79.0,79.0,79.0,79.0,79.0,0.0,0.0,27.970000000000013,27.97,27.970000000000006,27.970000000000006,27.970000000000013,6.4047456679787536e-15,1.1842378929335002e-15,1.14,-0.85,0.13,0.11499999999999999,-0.85,0.7520305844844343,0.6633333333333332
1 -> 2,0.08451200000000003,0.08451199999999999,0.08451200000000002,0.08451200000000002,0.08451200000000003,1.8358587643600646e-17,-4.625929269271485e-18,79.0,79.0,79.0,79.0,79.0,0.0,0.0,27.970000000000013,27.97,27.970000000000006,27.970000000000006,27.970000000000013,6.4047456679787536e-15,1.1842378929335002e-15,1.14,-0.85,0.13,0.11499999999999999,-0.85,0.7520305844844343,0.6633333333333332
1 -> 2,0.08451200000000003,0.08451199999999999,0.08451200000000002,0.08451200000000002,0.08451200000000003,1.8358587643600646e-17,-4.625929269271485e-18,79.0,79.0,79.0,79.0,79.0,0.0,0.0,27.970000000000013,27.97,27.970000000000006,27.970000000000006,27.970000000000013,6.4047456679787536e-15,1.1842378929335002e-15,1.5,0.52,1.1324999999999998,1.255,0.52,0.39251592324388573,-0.32666666666666666
1 -> 2,0.08451200000000003,0.08451199999999999,0.08451200000000002,0.08451200000000002,0.08451200000000003,1.8358587643600646e-17,-4.625929269271485e-18,79.0,79.0,79.0,79.0,79.0,0.0,0.0,27.970000000000013,27.97,27.970000000000006,27.970000000000006,27.970000000000013,6.4047456679787536e-15,1.1842378929335002e-15,1.5,0.52,1.1324999999999998,1.255,0.52,0.39251592324388573,-0.32666666666666666
1 -> 2,0.08195100000000002,0.08195099999999998,0.08195100000000001,0.08195100000000001,0.08195100000000002,1.8358587643600646e-17,-4.625929269271485e-18,79.0,79.0,79.0,79.0,79.0,0.0,0.0,27.970000000000013,27.97,27.970000000000006,27.970000000000006,27.970000000000013,6.4047456679787536e-15,1.1842378929335002e-15,0.28,-0.12,0.052500000000000005,0.025,-0.12,0.14754236679679503,0.07
1 -> 2,0.08195100000000002,0.08195099999999998,0.08195100000000001,0.08195100000000001,0.08195100000000002,1.8358587643600646e-17,-4.625929269271485e-18,79.0,79.0,79.0,79.0,79.0,0.0,0.0,27.970000000000013,27.97,27.970000000000006,27.970000000000006,27.970000000000013,6.4047456679787536e-15,1.1842378929335002e-15,0.28,-0.12,0.052500000000000005,0.025,-0.12,0.14754236679679503,0.07
1 -> 2,0.08195100000000002,0.08195099999999998,0.08195100000000001,0.08195100000000001,0.08195100000000002,1.8358587643600646e-17,-4.625929269271485e-18,79.0,79.0,79.0,79.0,79.0,0.0,0.0,27.970000000000013,27.97,27.970000000000006,27.970000000000006,27.970000000000013,6.4047456679787536e-15,1.1842378929335002e-15,0.79,0.58,0.685,0.685,0.58,0.09552486587271404,-0.006666666666666672
1 -> 2,0.08195100000000002,0.08195099999999998,0.08195100000000001,0.08195100000000001,0.08195100000000002,1.8358587643600646e-17,-4.625929269271485e-18,79.0,79.0,79.0,79.0,79.0,0.0,0.0,27.970000000000013,27.97,27.970000000000006,27.970000000000006,27.970000000000013,6.4047456679787536e-15,1.1842378929335002e-15,0.79,0.58,0.685,0.685,0.58,0.09552486587271404,-0.006666666666666672
1 -> 2,0.08195100000000002,0.08195099999999998,0.08195100000000001,0.08195100000000001,0.08195100000000002,1.8358587643600646e-17,-4.625929269271485e-18,79.0,79.0,79.0,79.0,79.0,0.0,0.0,27.970000000000013,27.97,27.970000000000006,27.970000000000006,27.970000000000013,6.4047456679787536e-15,1.1842378929335002e-15,0.32,-0.07,0.08,0.035,-0.07,0.1521512405470294,-0.13
1 -> 2,0.08195100000000002,0.08195099999999998,0.08195100000000001,0.08195100000000001,0.08195100000000002,1.8358587643600646e-17,-4.625929269271485e-18,79.0,79.0,79.0,79.0,79.0,0.0,0.0,27.970000000000013,27.97,27.970000000000006,27.970000000000006,27.970000000000013,6.4047456679787536e-15,1.1842378929335002e-15,0.32,-0.07,0.08,0.035,-0.07,0.1521512405470294,-0.13
1 -> 2,0.08195100000000002,0.08195099999999998,0.08195100000000001,0.08195100000000001,0.08195100000000002,1.8358587643600646e-17,-4.625929269271485e-18,79.0,79.0,79.0,79.0,79.0,0.0,0.0,27.970000000000013,27.97,27.970000000000006,27.970000000000006,27.970000000000013,6.4047456679787536e-15,1.1842378929335002e-15,0.02,-0.07,-0.025,-0.025,-0.07,0.03354101966249685,0.03
1 -> 2,0.08195100000000002,0.08195099999999998,0.08195100000000001,0.08195100000000001,0.08195100000000002,1.8358587643600646e-17,-4.625929269271485e-18,79.0,79.0,79.0,79.0,79.0,0.0,0.0,27.970000000000013,27.97,27.970000000000006,27.970000000000006,27.970000000000013,6.4047456679787536e-15,1.1842378929335002e-15,0.02,-0.07,-0.025,-0.025,-0.07,0.03354101966249685,0.03
1 -> 2,0.08451200000000003,0.08451199999999999,0.08451200000000002,0.08451200000000002,0.08451200000000003,1.8358587643600646e-17,-4.625929269271485e-18,79.0,79.0,79.0,79.0,79.0,0.0,0.0,27.970000000000013,27.97,27.970000000000006,27.970000000000006,27.970000000000013,6.4047456679787536e-15,1.1842378929335002e-15,0.07,-0.06,0.0225,0.04,-0.06,0.0511737237261468,-0.04
1 -> 2,0.08451200000000003,0.08451199999999999,0.08451200000000002,0.08451200000000002,0.08451200000000003,1.8358587643600646e-17,-4.625929269271485e-18,79.0,79.0,79.0,79.0,79.0,0.0,0.0,27.970000000000013,27.97,27.970000000000006,27.970000000000006,27.970000000000013,6.4047456679787536e-15,1.1842378929335002e-15,0.07,-0.06,0.0225,0.04,-0.06,0.0511737237261468,-0.04
1 -> 2,0.08451200000000003,0.08451199999999999,0.08451200000000002,0.08451200000000002,0.08451200000000003,1.8358587643600646e-17,-4.625929269271485e-18,79.0,79.0,79.0,79.0,79.0,0.0,0.0,27.970000000000013,27.97,27.970000000000006,27.970000000000006,27.970000000000013,6.4047456679787536e-15,1.1842378929335002e-15,-0.15,-0.2,-0.17750000000000002,-0.18,-0.2,0.019202864369671526,-0.006666666666666672
1 -> 2,0.08451200000000003,0.08451199999999999,0.08451200000000002,0.08451200000000002,0.08451200000000003,1.8358587643600646e-17,-4.625929269271485e-18,79.0,79.0,79.0,79.0,79.0,0.0,0.0,27.970000000000013,27.97,27.970000000000006,27.970000000000006,27.970000000000013,6.4047456679787536e-15,1.1842378929335002e-15,-0.15,-0.2,-0.17750000000000002,-0.18,-0.2,0.019202864369671526,-0.006666666666666672
1 -> 2,0.08451200000000003,0.08451199999999999,0.08451200000000002,0.08451200000000002,0.08451200000000003,1.8358587643600646e-17,-4.625929269271485e-18,79.0,79.0,79.0,79.0,79.0,0.0,0.0,27.970000000000013,27.97,27.970000000000006,27.970000000000006,27.970000000000013,6.4047456679787536e-15,1.1842378929335002e-15,-0.22,-0.7,-0.46,-0.46,-0.7,0.18384776310850234,-0.16
1 -> 2,0.08451200000000003,0.08451199999999999,0.08451200000000002,0.08451200000000002,0.08451200000000003,1.8358587643600646e-17,-4.625929269271485e-18,79.0,79.0,79.0,79.0,79.0,0.0,0.0,27.970000000000013,27.97,27.970000000000006,27.970000000000006,27.970000000000013,6.4047456679787536e-15,1.1842378929335002e-15,-0.22,-0.7,-0.46,-0.46,-0.7,0.18384776310850234,-0.16
1 -> 2,0.08451200000000003,0.08451199999999999,0.08451200000000002,0.08451200000000002,0.08451200000000003,1.8358587643600646e-17,-4.625929269271485e-18,79.0,79.0,79.0,79.0,79.0,0.0,0.0,27.970000000000013,27.97,27.970000000000006,27.970000000000006,27.970000000000013,6.4047456679787536e-15,1.1842378929335002e-15,0.42,-0.66,-0.14500000000000002,-0.17,-0.66,0.4104570623098109,0.36000000000000004
1 -> 2,0.08451200000000003,0.08451199999999999,0.08451200000000002,0.08451200000000002,0.08451200000000003,1.8358587643600646e-17,-4.625929269271485e-18,79.0,79.0,79.0,79.0,79.0,0.0,0.0,27.970000000000013,27.97,27.970000000000006,27.970000000000006,27.970000000000013,6.4047456679787536e-15,1.1842378929335002e-15,0.42,-0.66,-0.14500000000000002,-0.17,-0.66,0.4104570623098109,0.36000000000000004
1 -> 2,0.08067000000000003,0.08066999999999995,0.08066999999999999,0.08067,0.08067000000000003,3.671717528720129e-17,9.25185853854297e-18,80.38,80.38,80.38,80.38,80.38,0.0,0.0,27.970000000000013,27.97,27.970000000000006,27.970000000000006,27.970000000000013,6.4047456679787536e-15,1.1842378929335002e-15,0.54,-0.55,0.05250000000000002,0.11000000000000001,-0.55,0.41954588545235433,-0.36333333333333334
1 -> 2,0.08067000000000003,0.08066999999999995,0.08066999999999999,0.08067,0.08067000000000003,3.671717528720129e-17,9.25185853854297e-18,80.38,80.38,80.38,80.38,80.38,0.0,0.0,27.970000000000013,27.97,27.970000000000006,27.970000000000006,27.970000000000013,6.4047456679787536e-15,1.1842378929335002e-15,0.54,-0.55,0.05250000000000002,0.11000000000000001,-0.55,0.41954588545235433,-0.36333333333333334
1 -> 2,0.08067000000000003,0.08066999999999995,0.08066999999999999,0.08067,0.08067000000000003,3.671717528720129e-17,9.25185853854297e-18,80.38,80.38,80.38,80.38,80.38,0.0,0.0,27.970000000000013,27.97,27.970000000000006,27.970000000000006,27.970000000000013,6.4047456679787536e-15,1.1842378929335002e-15,-0.11,-0.79,-0.505,-0.5599999999999999,-0.79,0.268467875173176,0.22666666666666668
1 -> 2,0.08067000000000003,0.08066999999999995,0.08066999999999999,0.08067,0.08067000000000003,3.671717528720129e-17,9.25185853854297e-18,80.38,80.38,80.38,80.38,80.38,0.0,0.0,27.970000000000013,27.97,27.970000000000006,27.970000000000006,27.970000000000013,6.4047456679787536e-15,1.1842378929335002e-15,-0.11,-0.79,-0.505,-0.5599999999999999,-0.79,0.268467875173176,0.22666666666666668
1 -> 2,0.08067000000000003,0.08066999999999995,0.08066999999999999,0.08067,0.08067000000000003,3.671717528720129e-17,9.25185853854297e-18,80.38,80.38,80.38,80.38,80.38,0.0,0.0,27.970000000000013,27.97,27.970000000000006,27.970000000000006,27.970000000000013,6.4047456679787536e-15,1.1842378929335002e-15,-0.01,-0.53,-0.265,-0.26,-0.53,0.20254629100529095,-0.17333333333333334
1 -> 2,0.08067000000000003,0.08066999999999995,0.08066999999999999,0.08067,0.08067000000000003,3.671717528720129e-17,9.25185853854297e-18,80.38,80.38,80.38,80.38,80.38,0.0,0.0,27.970000000000013,27.97,27.970000000000006,27.970000000000006,27.970000000000013,6.4047456679787536e-15,1.1842378929335002e-15,-0.01,-0.53,-0.265,-0.26,-0.53,0.20254629100529095,-0.17333333333333334
1 -> 2,0.08067000000000003,0.08066999999999995,0.08066999999999999,0.08067,0.08067000000000003,3.671717528720129e-17,9.25185853854297e-18,80.38,80.38,80.38,80.38,80.38,0.0,0.0,27.970000000000013,27.97,27.970000000000006,27.970000000000006,27.970000000000013,6.4047456679787536e-15,1.1842378929335002e-15,0.72,-0.41,0.16999999999999998,0.185,-0.41,0.4302905994790032,0.37666666666666665
1 -> 2,0.08067000000000003,0.08066999999999995,0.08066999999999999,0.08067,0.08067000000000003,3.671717528720129e-17,9.25185853854297e-18,80.38,80.38,80.38,80.38,80.38,0.0,0.0,27.970000000000013,27.97,27.970000000000006,27.970000000000006,27.970000000000013,6.4047456679787536e-15,1.1842378929335002e-15,0.72,-0.41,0.16999999999999998,0.185,-0.41,0.4302905994790032,0.37666666666666665
1 -> 2,0.09603600000000005,0.09603599999999998,0.09603600000000001,0.09603600000000001,0.09603599999999998,3.5381555418772973e-17,0.0,80.38,80.38,80.38,80.38,80.38,0.0,0.0,27.970000000000013,27.97,27.970000000000006,27.970000000000006,27.970000000000013,6.4047456679787536e-15,1.1842378929335002e-15,0.71,-0.34,0.19249999999999995,0.19999999999999998,-0.34,0.3998984246030484,-0.35000000000000003
1 -> 2,0.09603600000000005,0.09603599999999998,0.09603600000000001,0.09603600000000001,0.09603599999999998,3.5381555418772973e-17,0.0,80.38,80.38,80.38,80.38,80.38,0.0,0.0,27.970000000000013,27.97,27.970000000000006,27.970000000000006,27.970000000000013,6.4047456679787536e-15,1.1842378929335002e-15,0.71,-0.34,0.19249999999999995,0.19999999999999998,-0.34,0.3998984246030484,-0.35000000000000003
1 -> 2,0.09603600000000005,0.09603599999999998,0.09603600000000001,0.09603600000000001,0.09603599999999998,3.5381555418772973e-17,0.0,80.38,80.38,80.38,80.38,80.38,0.0,0.0,27.970000000000013,27.97,27.970000000000006,27.970000000000006,27.970000000000013,6.4047456679787536e-15,1.1842378929335002e-15,0.33,-0.44,-0.09249999999999999,-0.13,-0.44,0.2945653577731095,0.25666666666666665
1 -> 2,0.09603600000000005,0.09603599999999998,0.09603600000000001,0.09603600000000001,0.09603599999999998,3.5381555418772973e-17,0.0,80.38,80.38,80.38,80.38,80.38,0.0,0.0,27.970000000000013,27.97,27.970000000000006,27.970000000000006,27.970000000000013,6.4047456679787536e-15,1.1842378929335002e-15,0.33,-0.44,-0.09249999999999999,-0.13,-0.44,0.2945653577731095,0.25666666666666665
1 -> 2,0.09603600000000005,0.09603599999999998,0.09603600000000001,0.09603600000000001,0.09603599999999998,3.5381555418772973e-17,0.0,80.38,80.38,80.38,80.38,80.38,0.0,0.0,27.970000000000013,27.97,27.970000000000006,27.970000000000006,27.970000000000013,6.4047456679787536e-15,1.1842378929335002e-15,0.63,0.3,0.5075,0.55,0.3,0.12437342963832751,-0.08666666666666668
1 -> 2,0.09603600000000005,0.09603599999999998,0.09603600000000001,0.09603600000000001,0.09603599999999998,3.5381555418772973e-17,0.0,80.38,80.38,80.38,80.38,80.38,0.0,0.0,27.970000000000013,27.97,27.970000000000006,27.970000000000006,27.970000000000013,6.4047456679787536e-15,1.1842378929335002e-15,0.63,0.3,0.5075,0.55,0.3,0.12437342963832751,-0.08666666666666668
1 -> 2,0.09603600000000005,0.09603599999999998,0.09603600000000001,0.09603600000000001,0.09603599999999998,3.5381555418772973e-17,0.0,80.38,80.38,80.38,80.38,80.38,0.0,0.0,27.970000000000013,27.97,27.970000000000006,27.970000000000006,27.970000000000013,6.4047456679787536e-15,1.1842378929335002e-15,-0.06,-1.14,-0.645,-0.69,-1.14,0.4096644968751868,-0.36000000000000004
1 -> 2,0.09603600000000005,0.09603599999999998,0.09603600000000001,0.09603600000000001,0.09603599999999998,3.5381555418772973e-17,0.0,80.38,80.38,80.38,80.38,80.38,0.0,0.0,27.970000000000013,27.97,27.970000000000006,27.970000000000006,27.970000000000013,6.4047456679787536e-15,1.1842378929335002e-15,-0.06,-1.14,-0.645,-0.69,-1.14,0.4096644968751868,-0.36000000000000004
1 -> 2,0.08195100000000002,0.08195099999999998,0.08195100000000001,0.08195100000000001,0.08195100000000002,1.8358587643600646e-17,-4.625929269271485e-18,80.38,80.38,80.38,80.38,80.38,0.0,0.0,27.970000000000013,27.97,27.970000000000006,27.970000000000006,27.970000000000013,6.4047456679787536e-15,1.1842378929335002e-15,-0.22,-1.17,-0.75,-0.8049999999999999,-1.17,0.3621463792446364,0.31666666666666665
1 -> 2,0.08195100000000002,0.08195099999999998,0.08195100000000001,0.08195100000000001,0.08195100000000002,1.8358587643600646e-17,-4.625929269271485e-18,80.38,80.38,80.38,80.38,80.38,0.0,0.0,27.970000000000013,27.97,27.970000000000006,27.970000000000006,27.970000000000013,6.4047456679787536e-15,1.1842378929335002e-15,-0.22,-1.17,-0.75,-0.8049999999999999,-1.17,0.3621463792446364,0.31666666666666665
1 -> 2,0.08195100000000002,0.08195099999999998,0.08195100000000001,0.08195100000000001,0.08195100000000002,1.8358587643600646e-17,-4.625929269271485e-18,80.38,80.38,80.38,80.38,80.38,0.0,0.0,27.970000000000013,27.97,27.970000000000006,27.970000000000006,27.970000000000013,6.4047456679787536e-15,1.1842378929335002e-15,0.94,0.16,0.5825,0.615,0.16,0.29363029475856195,0.25999999999999995
1 -> 2,0.08195100000000002,0.08195099999999998,0.08195100000000001,0.08195100000000001,0.08195100000000002,1.8358587643600646e-17,-4.625929269271485e-18,80.38,80.38,80.38,80.38,80.38,0.0,0.0,27.970000000000013,27.97,27.970000000000006,27.970000000000006,27.970000000000013,6.4047456679787536e-15,1.1842378929335002e-15,0.94,0.16,0.5825,0.615,0.16,0.29363029475856195,0.25999999999999995
1 -> 2,0.08195100000000002,0.08195099999999998,0.08195100000000001,0.08195100000000001,0.08195100000000002,1.8358587643600646e-17,-4.625929269271485e-18,80.38,80.38,80.38,80.38,80.38,0.0,0.0,27.970000000000013,27.97,27.970000000000006,27.970000000000006,27.970000000000013,6.4047456679787536e-15,1.1842378929335002e-15,1.01,0.37,0.7450000000000001,0.8,0.37,0.2478406746278746,-0.21333333333333335
1 -> 2,0.08195100000000002,0.08195099999999998,0.08195100000000001,0.08195100000000001,0.08195100000000002,1.8358587643600646e-17,-4.625929269271485e-18,80.38,80.38,80.38,80.38,80.38,0.0,0.0,27.970000000000013,27.97,27.970000000000006,27.970000000000006,27.970000000000013,6.4047456679787536e-15,1.1842378929335002e-15,1.01,0.37,0.7450000000000001,0.8,0.37,0.2478406746278746,-0.21333333333333335
1 -> 2,0.08195100000000002,0.08195099999999998,0.08195100000000001,0.08195100000000001,0.08195100000000002,1.8358587643600646e-17,-4.625929269271485e-18,80.38,80.38,80.38,80.38,80.38,0.0,0.0,27.970000000000013,27.97,27.970000000000006,27.970000000000006,27.970000000000013,6.4047456679787536e-15,1.1842378929335002e-15,0.43,0.08,0.21250000000000002,0.17,0.08,0.13254716141811562,0.09666666666666666
1 -> 2,0.08195100000000002,0.08195099999999998,0.08195100000000001,0.08195100000000001,0.08195100000000002,1.8358587643600646e-17,-4.625929269271485e-18,80.38,80.38,80.38,80.38,80.38,0.0,0.0,27.970000000000013,27.97,27.970000000000006,27.970000000000006,27.970000000000013,6.4047456679787536e-15,1.1842378929335002e-15,0.43,0.08,0.21250000000000002,0.17,0.08,0.13254716141811562,0.09666666666666666
1 -> 2,0.08451200000000003,0.08451199999999999,0.08451200000000002,0.08451200000000002,0.08451200000000003,1.8358587643600646e-17,-4.625929269271485e-18,80.38,80.38,80.38,80.38,80.38,0.0,0.0,27.970000000000013,27.97,27.970000000000006,27.970000000000006,27.970000000000013,6.4047456679787536e-15,1.1842378929335002e-15,0.63,0.17,0.47,0.54,0.17,0.18587630295441104,-0.15
1 -> 2,0.08451200000000003,0.08451199999999999,0.08451200000000002,0.08451200000000002,0.08451200000000003,1.8358587643600646e-17,-4.625929269271485e-18,80.38,80.38,80.38,80.38,80.38,0.0,0.0,27.970000000000013,27.97,27.970000000000006,27.970000000000006,27.970000000000013,6.4047456679787536e-15,1.1842378929335002e-15,0.63,0.17,0.47,0.54,0.17,0.18587630295441104,-0.15
1 -> 2,0.08451200000000003,0.08451199999999999,0.08451200000000002,0.08451200000000002,0.08451200000000003,1.8358587643600646e-17,-4.625929269271485e-18,80.38,80.38,80.38,80.38,80.38,0.0,0.0,27.970000000000013,27.97,27.970000000000006,27.970000000000006,27.970000000000013,6.4047456679787536e-15,1.1842378929335002e-15,-0.12,-0.36,-0.275,-0.31,-0.31,0.09178779875342909,-0.06333333333333334
1 -> 2,0.08451200000000003,0.08451199999999999,0.08451200000000002,0.08451200000000002,0.08451200000000003,1.8358587643600646e-17,-4.625929269271485e-18,80.38,80.38,80.38,80.38,80.38,0.0,0.0,27.970000000000013,27.97,27.970000000000006,27.970000000000006,27.970000000000013,6.4047456679787536e-15,1.1842378929335002e-15,-0.12,-0.36,-0.275,-0.31,-0.31,0.09178779875342909,-0.06333333333333334
1 -> 2,0.08451200000000003,0.08451199999999999,0.08451200000000002,0.08451200000000002,0.08451200000000003,1.8358587643600646e-17,-4.625929269271485e-18,80.38,80.38,80.38,80.38,80.38,0.0,0.0,27.970000000000013,27.97,27.970000000000006,27.970000000000006,27.970000000000013,6.4047456679787536e-15,1.1842378929335002e-15,-0.0,-0.22,-0.09749999999999999,-0.08499999999999999,-0.22,0.08257572282456872,0.07333333333333332
1 -> 2,0.08451200000000003,0.08451199999999999,0.08451200000000002,0.08451200000000002,0.08451200000000003,1.8358587643600646e-17,-4.625929269271485e-18,80.38,80.38,80.38,80.38,80.38,0.0,0.0,27.970000000000013,27.97,27.970000000000006,27.970000000000006,27.970000000000013,6.4047456679787536e-15,1.1842378929335002e-15,-0.0,-0.22,-0.09749999999999999,-0.08499999999999999,-0.22,0.08257572282456872,0.07333333333333332
1 -> 2,0.08451200000000003,0.08451199999999999,0.08451200000000002,0.08451200000000002,0.08451200000000003,1.8358587643600646e-17,-4.625929269271485e-18,80.38,80.38,80.38,80.38,80.38,0.0,0.0,27.970000000000013,27.97,27.970000000000006,27.970000000000006,27.970000000000013,6.4047456679787536e-15,1.1842378929335002e-15,0.08,0.03,0.057499999999999996,0.06,0.06,0.017853571071357127,0.01
1 -> 2,0.08451200000000003,0.08451199999999999,0.08451200000000002,0.08451200000000002,0.08451200000000003,1.8358587643600646e-17,-4.625929269271485e-18,80.38,80.38,80.38,80.38,80.38,0.0,0.0,27.970000000000013,27.97,27.970000000000006,27.970000000000006,27.970000000000013,6.4047456679787536e-15,1.1842378929335002e-15,0.08,0.03,0.057499999999999996,0.06,0.06,0.017853571071357127,0.01
1 -> 2,0.07939000000000003,0.07938999999999996,0.07939,0.07939000000000002,0.07939000000000003,2.8609792490763984e-17,1.3877787807814457e-17,81.89,81.89,81.89,81.89,81.89,0.0,0.0,27.970000000000013,27.97,27.970000000000006,27.970000000000006,27.970000000000013,6.4047456679787536e-15,1.1842378929335002e-15,-0.01,-0.59,-0.27749999999999997,-0.255,-0.59,0.21924586655168665,-0.19333333333333333
1 -> 2,0.07939000000000003,0.07938999999999996,0.07939,0.07939000000000002,0.07939000000000003,2.8609792490763984e-17,1.3877787807814457e-17,81.89,81.89,81.89,81.89,81.89,0.0,0.0,27.970000000000013,27.97,27.970000000000006,27.970000000000006,27.970000000000013,6.4047456679787536e-15,1.1842378929335002e-15,-0.01,-0.59,-0.27749999999999997,-0.255,-0.59,0.21924586655168665,-0.19333333333333333
1 -> 2,0.07939000000000003,0.07938999999999996,0.07939,0.07939000000000002,0.07939000000000003,2.8609792490763984e-17,1.3877787807814457e-17,81.89,81.89,81.89,81.89,81.89,0.0,0.0,27.970000000000013,27.97,27.970000000000006,27.970000000000006,27.970000000000013,6.4047456679787536e-15,1.1842378929335002e-15,-0.75,-0.91,-0.8375,-0.845,-0.91,0.0653356717268599,0.01666666666666668
1 -> 2,0.07939000000000003,0.07938999999999996,0.07939,0.07939000000000002,0.07939000000000003,2.8609792490763984e-17,1.3877787807814457e-17,81.89,81.89,81.89,81.89,81.89,0.0,0.0,27.970000000000013,27.97,27.970000000000006,27.970000000000006,27.970000000000013,6.4047456679787536e-15,1.1842378929335002e-15,-0.75,-0.91,-0.8375,-0.845,-0.91,0.0653356717268599,0.01666666666666668
1 -> 2,0.07939000000000003,0.07938999999999996,0.07939,0.07939000000000002,0.07939000000000003,2.8609792490763984e-17,1.3877787807814457e-17,81.89,81.89,81.89,81.89,81.89,0.0,0.0,27.970000000000013,27.97,27.970000000000006,27.970000000000006,27.970000000000013,6.4047456679787536e-15,1.1842378929335002e-15,-0.19,-0.57,-0.355,-0.33,-0.57,0.14309088021254182,0.12666666666666665
1 -> 2,0.07939000000000003,0.07938999999999996,0.07939,0.07939000000000002,0.07939000000000003,2.8609792490763984e-17,1.3877787807814457e-17,81.89,81.89,81.89,81.89,81.89,0.0,0.0,27.970000000000013,27.97,27.970000000000006,27.970000000000006,27.970000000000013,6.4047456679787536e-15,1.1842378929335002e-15,-0.19,-0.57,-0.355,-0.33,-0.57,0.14309088021254182,0.12666666666666665
1 -> 2,0.07939000000000003,0.07938999999999996,0.07939,0.07939000000000002,0.07939000000000003,2.8609792490763984e-17,1.3877787807814457e-17,81.89,81.89,81.89,81.89,81.89,0.0,0.0,27.970000000000013,27.97,27.970000000000006,27.970000000000006,27.970000000000013,6.4047456679787536e-15,1.1842378929335002e-15,0.81,-0.06,0.3425,0.31,-0.06,0.3293459427410637,0.29
1 -> 2,0.07939000000000003,0.07938999999999996,0.07939,0.07939000000000002,0.07939000000000003,2.8609792490763984e-17,1.3877787807814457e-17,81.89,81.89,81.89,81.89,81.89,0.0,0.0,27.970000000000013,27.97,27.970000000000006,27.970000000000006,27.970000000000013,6.4047456679787536e-15,1.1842378929335002e-15,0.81,-0.06,0.3425,0.31,-0.06,0.3293459427410637,0.29
1 -> 2,0.08451200000000003,0.08451199999999999,0.08451200000000002,0.08451200000000002,0.08451200000000003,1.8358587643600646e-17,-4.625929269271485e-18,81.89,81.89,81.89,81.89,81.89,0.0,0.0,27.970000000000013,27.97,27.970000000000006,27.970000000000006,27.970000000000013,6.4047456679787536e-15,1.1842378929335002e-15,1.04,0.35,0.7975000000000001,0.9,0.35,0.2801227409547465,-0.23
1 -> 2,0.08451200000000003,0.08451199999999999,0.08451200000000002,0.08451200000000002,0.08451200000000003,1.8358587643600646e-17,-4.625929269271485e-18,81.89,81.89,81.89,81.89,81.89,0.0,0.0,27.970000000000013,27.97,27.970000000000006,27.970000000000006,27.970000000000013,6.4047456679787536e-15,1.1842378929335002e-15,1.04,0.35,0.7975000000000001,0.9,0.35,0.2801227409547465,-0.23
1 -> 2,0.08451200000000003,0.08451199999999999,0.08451200000000002,0.08451200000000002,0.08451200000000003,1.8358587643600646e-17,-4.625929269271485e-18,81.89,81.89,81.89,81.89,81.89,0.0,0.0,27.970000000000013,27.97,27.970000000000006,27.970000000000006,27.970000000000013,6.4047456679787536e-15,1.1842378929335002e-15,-0.07,-0.39,-0.2675,-0.30500000000000005,-0.39,0.12173228823939851,-0.06666666666666667
1 -> 2,0.08451200000000003,0.08451199999999999,0.08451200000000002,0.08451200000000002,0.08451200000000003,1.8358587643600646e-17,-4.625929269271485e-18,81.89,81.89,81.89,81.89,81.89,0.0,0.0,27.970000000000013,27.97,27.970000000000006,27.970000000000006,27.970000000000013,6.4047456679787536e-15,1.1842378929335002e-15,-0.07,-0.39,-0.2675,-0.30500000000000005,-0.39,0.12173228823939851,-0.06666666666666667
1 -> 2,0.08451200000000003,0.08451199999999999,0.08451200000000002,0.08451200000000002,0.08451200000000003,1.8358587643600646e-17,-4.625929269271485e-18,81.89,81.89,81.89,81.89,81.89,0.0,0.0,27.970000000000013,27.97,27.970000000000006,27.970000000000006,27.970000000000013,6.4047456679787536e-15,1.1842378929335002e-15,0.17,-0.1,0.055,0.075,-0.1,0.10062305898749055,0.09000000000000001
1 -> 2,0.08451200000000003,0.08451199999999999,0.08451200000000002,0.08451200000000002,0.08451200000000003,1.8358587643600646e-17,-4.625929269271485e-18,81.89,81.89,81.89,81.89,81.89,0.0,0.0,27.970000000000013,27.97,27.970000000000006,27.970000000000006,27.970000000000013,6.4047456679787536e-15,1.1842378929335002e-15,0.17,-0.1,0.055,0.075,-0.1,0.10062305898749055,0.09000000000000001
1 -> 2,0.08451200000000003,0.08451199999999999,0.08451200000000002,0.08451200000000002,0.08451200000000003,1.8358587643600646e-17,-4.625929269271485e-18,81.89,81.89,81.89,81.89,81.89,0.0,0.0,27.970000000000013,27.97,27.970000000000006,27.970000000000006,27.970000000000013,6.4047456679787536e-15,1.1842378929335002e-15,0.57,0.25,0.43499999999999994,0.46,0.25,0.1259960316835415,0.10666666666666665
1 -> 2,0.08451200000000003,0.08451199999999999,0.08451200000000002,0.08451200000000002,0.08451200000000003,1.8358587643600646e-17,-4.625929269271485e-18,81.89,81.89,81.89,81.89,81.89,0.0,0.0,27.970000000000013,27.97,27.970000000000006,27.970000000000006,27.970000000000013,6.4047456679787536e-15,1.1842378929335002e-15,0.57,0.25,0.43499999999999994,0.46,0.25,0.1259960316835415,0.10666666666666665
1 -> 2,0.08451200000000003,0.08451199999999999,0.08451200000000002,0.08451200000000002,0.08451200000000003,1.8358587643600646e-17,-4.625929269271485e-18,81.89,81.89,81.89,81.89,81.89,0.0,0.0,27.970000000000013,27.97,27.970000000000006,27.970000000000006,27.970000000000013,6.4047456679787536e-15,1.1842378929335002e-15,0.45,-0.48,-0.012499999999999997,-0.009999999999999995,-0.48,0.35258864133718204,-0.31
1 -> 2,0.08451200000000003,0.08451199999999999,0.08451200000000002,0.08451200000000002,0.08451200000000003,1.8358587643600646e-17,-4.625929269271485e-18,81.89,81.89,81.89,81.89,81.89,0.0,0.0,27.970000000000013,27.97,27.970000000000006,27.970000000000006,27.970000000000013,6.4047456679787536e-15,1.1842378929335002e-15,0.45,-0.48,-0.012499999999999997,-0.009999999999999995,-0.48,0.35258864133718204,-0.31
1 -> 2,0.08451200000000003,0.08451199999999999,0.08451200000000002,0.08451200000000002,0.08451200000000003,1.8358587643600646e-17,-4.625929269271485e-18,81.89,81.89,81.89,81.89,81.89,0.0,0.0,27.970000000000013,27.97,27.970000000000006,27.970000000000006,27.970000000000013,6.4047456679787536e-15,1.1842378929335002e-15,0.13,-0.61,-0.3125,-0.385,-0.61,0.2877824699317177,0.24666666666666667
1 -> 2,0.08451200000000003,0.08451199999999999,0.08451200000000002,0.08451200000000002,0.08451200000000003,1.8358587643600646e-17,-4.625929269271485e-18,81.89,81.89,81.89,81.89,81.89,0.0,0.0,27.970000000000013,27.97,27.970000000000006,27.970000000000006,27.970000000000013,6.4047456679787536e-15,1.1842378929335002e-15,0.13,-0.61,-0.3125,-0.385,-0.61,0.2877824699317177,0.24666666666666667
1 -> 2,0.08451200000000003,0.08451199999999999,0.08451200000000002,0.08451200000000002,0.08451200000000003,1.8358587643600646e-17,-4.625929269271485e-18,81.89,81.89,81.89,81.89,81.89,0.0,0.0,27.970000000000013,27.97,27.970000000000006,27.970000000000006,27.970000000000013,6.4047456679787536e-15,1.1842378929335002e-15,0.97,0.5,0.8074999999999999,0.88,0.5,0.18991774535308698,0.15666666666666665
1 -> 2,0.08451200000000003,0.08451199999999999,0.08451200000000002,0.08451200000000002,0.08451200000000003,1.8358587643600646e-17,-4.625929269271485e-18,81.89,81.89,81.89,81.89,81.89,0.0,0.0,27.970000000000013,27.97,27.970000000000006,27.970000000000006,27.970000000000013,6.4047456679787536e-15,1.1842378929335002e-15,0.97,0.5,0.8074999999999999,0.88,0.5,0.18991774535308698,0.15666666666666665
1 -> 2,0.08451200000000003,0.08451199999999999,0.08451200000000002,0.08451200000000002,0.08451200000000003,1.8358587643600646e-17,-4.625929269271485e-18,81.89,81.89,81.89,81.89,81.89,0.0,0.0,27.970000000000013,27.97,27.970000000000006,27.970000000000006,27.970000000000013,6.4047456679787536e-15,1.1842378929335002e-15,0.82,-0.29,0.30000000000000004,0.335,-0.29,0.41743262929483604,-0.36999999999999994
1 -> 2,0.08451200000000003,0.08451199999999999,0.08451200000000002,0.08451200000000002,0.08451200000000003,1.8358587643600646e-17,-4.625929269271485e-18,81.89,81.89,81.89,81.89,81.89,0.0,0.0,27.970000000000013,27.97,27.970000000000006,27.970000000000006,27.970000000000013,6.4047456679787536e-15,1.1842378929335002e-15,0.82,-0.29,0.30000000000000004,0.335,-0.29,0.41743262929483604,-0.36999999999999994
1 -> 2,0.08067000000000003,0.08066999999999995,0.08066999999999999,0.08067,0.08067000000000003,3.671717528720129e-17,9.25185853854297e-18,81.89,81.89,81.89,81.89,81.89,0.0,0.0,27.970000000000013,27.97,27.970000000000006,27.970000000000006,27.970000000000013,6.4047456679787536e-15,1.1842378929335002e-15,-0.69,-1.14,-0.985,-1.0550000000000002,-1.14,0.17979154596365204,-0.1433333333333334
1 -> 2,0.08067000000000003,0.08066999999999995,0.08066999999999999,0.08067,0.08067000000000003,3.671717528720129e-17,9.25185853854297e-18,81.89,81.89,81.89,81.89,81.89,0.0,0.0,27.970000000000013,27.97,27.970000000000006,27.970000000000006,27.970000000000013,6.4047456679787536e-15,1.1842378929335002e-15,-0.69,-1.14,-0.985,-1.0550000000000002,-1.14,0.17979154596365204,-0.1433333333333334
1 -> 2,0.08067000000000003,0.08066999999999995,0.08066999999999999,0.08067,0.08067000000000003,3.671717528720129e-17,9.25185853854297e-18,81.89,81.89,81.89,81.89,81.89,0.0,0.0,27.970000000000013,27.97,27.970000000000006,27.970000000000006,27.970000000000013,6.4047456679787536e-15,1.1842378929335002e-15,-0.64,-0.99,-0.785,-0.7549999999999999,-0.99,0.13536986370680884,0.11666666666666665
1 -> 2,0.08067000000000003,0.08066999999999995,0.08066999999999999,0.08067,0.08067000000000003,3.671717528720129e-17,9.25185853854297e-18,81.89,81.89,81.89,81.89,81.89,0.0,0.0,27.970000000000013,27.97,27.970000000000006,27.970000000000006,27.970000000000013,6.4047456679787536e-15,1.1842378929335002e-15,-0.64,-0.99,-0.785,-0.7549999999999999,-0.99,0.13536986370680884,0.11666666666666665
1 -> 2,0.08067000000000003,0.08066999999999995,0.08066999999999999,0.08067,0.08067000000000003,3.671717528720129e-17,9.25185853854297e-18,81.89,81.89,81.89,81.89,81.89,0.0,0.0,27.970000000000013,27.97,27.970000000000006,27.970000000000006,27.970000000000013,6.4047456679787536e-15,1.1842378929335002e-15,-0.67,-0.75,-0.7075,-0.7050000000000001,-0.75,0.033447720400649104,0.003333333333333336
1 -> 2,0.08067000000000003,0.08066999999999995,0.08066999999999999,0.08067,0.08067000000000003,3.671717528720129e-17,9.25185853854297e-18,81.89,81.89,81.89,81.89,81.89,0.0,0.0,27.970000000000013,27.97,27.970000000000006,27.970000000000006,27.970000000000013,6.4047456679787536e-15,1.1842378929335002e-15,-0.67,-0.75,-0.7075,-0.7050000000000001,-0.75,0.033447720400649104,0.003333333333333336
1 -> 2,0.08067000000000003,0.08066999999999995,0.08066999999999999,0.08067,0.08067000000000003,3.671717528720129e-17,9.25185853854297e-18,81.89,81.89,81.89,81.89,81.89,0.0,0.0,27.970000000000013,27.97,27.970000000000006,27.970000000000006,27.970000000000013,6.4047456679787536e-15,1.1842378929335002e-15,0.42,-0.46,-0.012499999999999997,-0.0050000000000000044,-0.46,0.33236839500770826,0.2933333333333334
1 -> 2,0.08067000000000003,0.08066999999999995,0.08066999999999999,0.08067,0.08067000000000003,3.671717528720129e-17,9.25185853854297e-18,81.89,81.89,81.89,81.89,81.89,0.0,0.0,27.970000000000013,27.97,27.970000000000006,27.970000000000006,27.970000000000013,6.4047456679787536e-15,1.1842378929335002e-15,0.42,-0.46,-0.012499999999999997,-0.0050000000000000044,-0.46,0.33236839500770826,0.2933333333333334
1 -> 2,0.08323100000000003,0.08323099999999993,0.08323099999999997,0.08323099999999999,0.08323100000000003,4.654751537338637e-17,4.625929269271485e-18,82.9,82.9,82.9,82.9,82.9,0.0,0.0,27.970000000000013,27.97,27.970000000000006,27.970000000000006,27.970000000000013,6.4047456679787536e-15,1.1842378929335002e-15,0.53,-0.05,0.2975,0.355,-0.05,0.2279665545644799,-0.19333333333333336
1 -> 2,0.08323100000000003,0.08323099999999993,0.08323099999999997,0.08323099999999999,0.08323100000000003,4.654751537338637e-17,4.625929269271485e-18,82.9,82.9,82.9,82.9,82.9,0.0,0.0,27.970000000000013,27.97,27.970000000000006,27.970000000000006,27.970000000000013,6.4047456679787536e-15,1.1842378929335002e-15,0.53,-0.05,0.2975,0.355,-0.05,0.2279665545644799,-0.19333333333333336
1 -> 2,0.08323100000000003,0.08323099999999993,0.08323099999999997,0.08323099999999999,0.08323100000000003,4.654751537338637e-17,4.625929269271485e-18,82.9,82.9,82.9,82.9,82.9,0.0,0.0,27.970000000000013,27.97,27.970000000000006,27.970000000000006,27.970000000000013,6.4047456679787536e-15,1.1842378929335002e-15,-0.19,-0.44,-0.33499999999999996,-0.355,-0.44,0.09604686356149274,0.04
1 -> 2,0.08323100000000003,0.08323099999999993,0.08323099999999997,0.08323099999999999,0.08323100000000003,4.654751537338637e-17,4.625929269271485e-18,82.9,82.9,82.9,82.9,82.9,0.0,0.0,27.970000000000013,27.97,27.970000000000006,27.970000000000006,27.970000000000013,6.4047456679787536e-15,1.1842378929335002e-15,-0.19,-0.44,-0.33499999999999996,-0.355,-0.44,0.09604686356149274,0.04
1 -> 2,0.08323100000000003,0.08323099999999993,0.08323099999999997,0.08323099999999999,0.08323100000000003,4.654751537338637e-17,4.625929269271485e-18,82.9,82.9,82.9,82.9,82.9,0.0,0.0,27.970000000000013,27.97,27.970000000000006,27.970000000000006,27.970000000000013,6.4047456679787536e-15,1.1842378929335002e-15,1.09,0.14,0.655,0.6950000000000001,0.14,0.3601735692690401,0.3166666666666667
1 -> 2,0.08323100000000003,0.08323099999999993,0.08323099999999997,0.08323099999999999,0.08323100000000003,4.654751537338637e-17,4.625929269271485e-18,82.9,82.9,82.9,82.9,82.9,0.0,0.0,27.970000000000013,27.97,27.970000000000006,27.970000000000006,27.970000000000013,6.4047456679787536e-15,1.1842378929335002e-15,1.09,0.14,0.655,0.6950000000000001,0.14,0.3601735692690401,0.3166666666666667
1 -> 2,0.08323100000000003,0.08323099999999993,0.08323099999999997,0.08323099999999999,0.08323100000000003,4.654751537338637e-17,4.625929269271485e-18,82.9,82.9,82.9,82.9,82.9,0.0,0.0,27.970000000000013,27.97,27.970000000000006,27.970000000000006,27.970000000000013,6.4047456679787536e-15,1.1842378929335002e-15,1.1,-0.25,0.51,0.595,-0.25,0.5148300690519154,-0.45
1 -> 2,0.08323100000000003,0.08323099999999993,0.08323099999999997,0.08323099999999999,0.08323100000000003,4.654751537338637e-17,4.625929269271485e-18,82.9,82.9,82.9,82.9,82.9,0.0,0.0,27.970000000000013,27.97,27.970000000000006,27.970000000000006,27.970000000000013,6.4047456679787536e-15,1.1842378929335002e-15,1.1,-0.25,0.51,0.595,-0.25,0.5148300690519154,-0.45
1 -> 2,0.08195100000000002,0.08195099999999998,0.08195100000000001,0.08195100000000001,0.08195100000000002,1.8358587643600646e-17,-4.625929269271485e-18,82.9,82.9,82.9,82.9,82.9,0.0,0.0,27.970000000000013,27.97,27.970000000000006,27.970000000000006,27.970000000000013,6.4047456679787536e-15,1.1842378929335002e-15,-0.6,-1.05,-0.85,-0.875,-1.05,0.1744992836661515,0.06000000000000002
1 -> 2,0.08195100000000002,0.08195099999999998,0.08195100000000001,0.08195100000000001,0.08195100000000002,1.8358587643600646e-17,-4.625929269271485e-18,82.9,82.9,82.9,82.9,82.9,0.0,0.0,27.970000000000013,27.97,27.970000000000006,27.970000000000006,27.970000000000013,6.4047456679787536e-15,1.1842378929335002e-15,-0.6,-1.05,-0.85,-0.875,-1.05,0.1744992836661515,0.06000000000000002
1 -> 2,0.08195100000000002,0.08195099999999998,0.08195100000000001,0.08195100000000001,0.08195100000000002,1.8358587643600646e-17,-4.625929269271485e-18,82.9,82.9,82.9,82.9,82.9,0.0,0.0,27.970000000000013,27.97,27.970000000000006,27.970000000000006,27.970000000000013,6.4047456679787536e-15,1.1842378929335002e-15,0.26,-0.13,0.0875,0.11,-0.13,0.15658464164789598,0.04666666666666667
1 -> 2,0.08195100000000002,0.08195099999999998,0.08195100000000001,0.08195100000000001,0.08195100000000002,1.8358587643600646e-17,-4.625929269271485e-18,82.9,82.9,82.9,82.9,82.9,0.0,0.0,27.970000000000013,27.97,27.970000000000006,27.970000000000006,27.970000000000013,6.4047456679787536e-15,1.1842378929335002e-15,0.26,-0.13,0.0875,0.11,-0.13,0.15658464164789598,0.04666666666666667
1 -> 2,0.08195100000000002,0.08195099999999998,0.08195100000000001,0.08195100000000001,0.08195100000000002,1.8358587643600646e-17,-4.625929269271485e-18,82.9,82.9,82.9,82.9,82.9,0.0,0.0,27.970000000000013,27.97,27.970000000000006,27.970000000000006,27.970000000000013,6.4047456679787536e-15,1.1842378929335002e-15,-0.42,-1.17,-0.89,-0.9850000000000001,-1.17,0.29740544715926104,-0.25
1 -> 2,0.08195100000000002,0.08195099999999998,0.08195100000000001,0.08195100000000001,0.08195100000000002,1.8358587643600646e-17,-4.625929269271485e-18,82.9,82.9,82.9,82.9,82.9,0.0,0.0,27.970000000000013,27.97,27.970000000000006,27.970000000000006,27.970000000000013,6.4047456679787536e-15,1.1842378929335002e-15,-0.42,-1.17,-0.89,-0.9850000000000001,-1.17,0.29740544715926104,-0.25
1 -> 2,0.08195100000000002,0.08195099999999998,0.08195100000000001,0.08195100000000001,0.08195100000000002,1.8358587643600646e-17,-4.625929269271485e-18,82.9,82.9,82.9,82.9,82.9,0.0,0.0,27.970000000000013,27.97,27.970000000000006,27.970000000000006,27.970000000000013,6.4047456679787536e-15,1.1842378929335002e-15,-0.45,-1.04,-0.7350000000000001,-0.725,-1.04,0.22164160259301502,0.19666666666666668
1 -> 2,0.08195100000000002,0.08195099999999998,0.08195100000000001,0.08195100000000001,0.08195100000000002,1.8358587643600646e-17,-4.625929269271485e-18,82.9,82.9,82.9,82.9,82.9,0.0,0.0,27.970000000000013,27.97,27.970000000000006,27.970000000000006,27.970000000000013,6.4047456679787536e-15,1.1842378929335002e-15,-0.45,-1.04,-0.7350000000000001,-0.725,-1.04,0.22164160259301502,0.19666666666666668
1 -> 2,0.08323100000000003,0.08323099999999993,0.08323099999999997,0.08323099999999999,0.08323100000000003,4.654751537338637e-17,4.625929269271485e-18,82.9,82.9,82.9,82.9,82.9,0.0,0.0,27.970000000000013,27.97,27.970000000000006,27.970000000000006,27.970000000000013,6.4047456679787536e-15,1.1842378929335002e-15,0.13,-0.31,-0.08499999999999999,-0.08,-0.31,0.16560495161679192,0.14666666666666667
1 -> 2,0.08323100000000003,0.08323099999999993,0.08323099999999997,0.08323099999999999,0.08323100000000003,4.654751537338637e-17,4.625929269271485e-18,82.9,82.9,82.9,82.9,82.9,0.0,0.0,27.970000000000013,27.97,27.970000000000006,27.970000000000006,27.970000000000013,6.4047456679787536e-15,1.1842378929335002e-15,0.13,-0.31,-0.08499999999999999,-0.08,-0.31,0.16560495161679192,0.14666666666666667
1 -> 2,0.08323100000000003,0.08323099999999993,0.08323099999999997,0.08323099999999999,0.08323100000000003,4.654751537338637e-17,4.625929269271485e-18,82.9,82.9,82.9,82.9,82.9,0.0,0.0,27.970000000000013,27.97,27.970000000000006,27.970000000000006,27.970000000000013,6.4047456679787536e-15,1.1842378929335002e-15,0.47,0.22,0.325,0.30500000000000005,0.22,0.09394147114027966,0.08333333333333333
1 -> 2,0.08323100000000003,0.08323099999999993,0.08323099999999997,0.08323099999999999,0.08323100000000003,4.654751537338637e-17,4.625929269271485e-18,82.9,82.9,82.9,82.9,82.9,0.0,0.0,27.970000000000013,27.97,27.970000000000006,27.970000000000006,27.970000000000013,6.4047456679787536e-15,1.1842378929335002e-15,0.47,0.22,0.325,0.30500000000000005,0.22,0.09394147114027966,0.08333333333333333
1 -> 2,0.08323100000000003,0.08323099999999993,0.08323099999999997,0.08323099999999999,0.08323100000000003,4.654751537338637e-17,4.625929269271485e-18,82.9,82.9,82.9,82.9,82.9,0.0,0.0,27.970000000000013,27.97,27.970000000000006,27.970000000000006,27.970000000000013,6.4047456679787536e-15,1.1842378929335002e-15,0.93,0.66,0.8175,0.84,0.66,0.09832980219648567,0.05666666666666664
