PHASE,EDA_MAX,EDA_MIN,EDA_MEAN,EDA_MEDIAN,EDA_MODE,EDA_SD,EDA_DIFF,HR_MAX,HR_MIN,HR_MEAN,HR_MEDIAN,HR_MODE,HR_SD,HR_DIFF,SKT_MAX,SKT_MIN,SKT_MEAN,SKT_MEDIAN,SKT_MODE,SKT_SD,SKT_DIFF,BVP_MAX,BVP_MIN,BVP_MEAN,BVP_MEDIAN,BVP_MODE,BVP_SD,BVP_DIFF
1 -> 2,3.2490180000000017,3.249017999999999,3.2490180000000004,3.249018000000001,3.2490180000000017,1.1749496091904413e-15,2.9605947323337506e-16,55.0,55.0,55.0,55.0,55.0,0.0,0.0,34.97000000000001,34.97,34.97000000000001,34.97000000000001,34.97000000000001,7.105427357601002e-15,4.736951571734001e-15,-8.09,-16.48,-11.98,-11.675,-16.48,3.1521500598797645,-2.796666666666667
1 -> 2,3.2490180000000017,3.249017999999999,3.2490180000000004,3.249018000000001,3.2490180000000017,1.1749496091904413e-15,2.9605947323337506e-16,55.0,55.0,55.0,55.0,55.0,0.0,0.0,34.97000000000001,34.97,34.97000000000001,34.97000000000001,34.97000000000001,7.105427357601002e-15,4.736951571734001e-15,-8.09,-16.48,-11.98,-11.675,-16.48,3.1521500598797645,-2.796666666666667
1 -> 2,3.2490180000000017,3.249017999999999,3.2490180000000004,3.249018000000001,3.2490180000000017,1.1749496091904413e-15,2.9605947323337506e-16,55.0,55.0,55.0,55.0,55.0,0.0,0.0,34.97000000000001,34.97,34.97000000000001,34.97000000000001,34.97000000000001,7.105427357601002e-15,4.736951571734001e-15,-19.82,-23.67,-22.2175,-22.689999999999998,-23.67,1.4508165804125623,-1.0366666666666664
1 -> 2,3.2490180000000017,3.249017999999999,3.2490180000000004,3.249018000000001,3.2490180000000017,1.1749496091904413e-15,2.9605947323337506e-16,55.0,55.0,55.0,55.0,55.0,0.0,0.0,34.97000000000001,34.97,34.97000000000001,34.97000000000001,34.97000000000001,7.105427357601002e-15,4.736951571734001e-15,-19.82,-23.67,-22.2175,-22.689999999999998,-23.67,1.4508165804125623,-1.0366666666666664
1 -> 2,3.2490180000000017,3.249017999999999,3.2490180000000004,3.249018000000001,3.2490180000000017,1.1749496091904413e-15,2.9605947323337506e-16,55.0,55.0,55.0,55.0,55.0,0.0,0.0,34.97000000000001,34.97,34.97000000000001,34.97000000000001,34.97000000000001,7.105427357601002e-15,4.736951571734001e-15,-1.75,-20.01,-11.4,-11.92,-20.01,6.853707026128269,6.086666666666667
1 -> 2,3.2490180000000017,3.249017999999999,3.2490180000000004,3.249018000000001,3.2490180000000017,1.1749496091904413e-15,2.9605947323337506e-16,55.0,55.0,55.0,55.0,55.0,0.0,0.0,34.97000000000001,34.97,34.97000000000001,34.97000000000001,34.97000000000001,7.105427357601002e-15,4.736951571734001e-15,-1.75,-20.01,-11.4,-11.92,-20.01,6.853707026128269,6.086666666666667
1 -> 2,3.2490180000000017,3.249017999999999,3.2490180000000004,3.249018000000001,3.2490180000000017,1.1749496091904413e-15,2.9605947323337506e-16,55.0,55.0,55.0,55.0,55.0,0.0,0.0,34.97000000000001,34.97,34.97000000000001,34.97000000000001,34.97000000000001,7.105427357601002e-15,4.736951571734001e-15,21.48,5.2,13.807500000000001,14.275,5.2,6.090030274965799,5.426666666666667
1 -> 2,3.2490180000000017,3.249017999999999,3.2490180000000004,3.249018000000001,3.2490180000000017,1.1749496091904413e-15,2.9605947323337506e-16,55.0,55.0,55.0,55.0,55.0,0.0,0.0,34.97000000000001,34.97,34.97000000000001,34.97000000000001,34.97000000000001,7.105427357601002e-15,4.736951571734001e-15,21.48,5.2,13.807500000000001,14.275,5.2,6.090030274965799,5.426666666666667
1 -> 2,3.243897000000002,3.2438969999999996,3.2438970000000005,3.243897000000001,3.243897000000002,1.0648885158809838e-15,-1.4802973661668753e-16,55.0,55.0,55.0,55.0,55.0,0.0,0.0,34.97000000000001,34.97,34.97000000000001,34.97000000000001,34.97000000000001,7.105427357601002e-15,4.736951571734001e-15,28.64,24.96,27.3975,27.995,24.96,1.498372033241411,1.2266666666666666
1 -> 2,3.243897000000002,3.2438969999999996,3.2438970000000005,3.243897000000001,3.243897000000002,1.0648885158809838e-15,-1.4802973661668753e-16,55.0,55.0,55.0,55.0,55.0,0.0,0.0,34.97000000000001,34.97,34.97000000000001,34.97000000000001,34.97000000000001,7.105427357601002e-15,4.736951571734001e-15,28.64,24.96,27.3975,27.995,24.96,1.498372033241411,1.2266666666666666
1 -> 2,3.243897000000002,3.2438969999999996,3.2438970000000005,3.243897000000001,3.243897000000002,1.0648885158809838e-15,-1.4802973661668753e-16,55.0,55.0,55.0,55.0,55.0,0.0,0.0,34.97000000000001,34.97,34.97000000000001,34.97000000000001,34.97000000000001,7.105427357601002e-15,4.736951571734001e-15,27.47,20.07,23.905,24.04,20.07,2.7810834219778444,-2.4666666666666663
1 -> 2,3.243897000000002,3.2438969999999996,3.2438970000000005,3.243897000000001,3.243897000000002,1.0648885158809838e-15,-1.4802973661668753e-16,55.0,55.0,55.0,55.0,55.0,0.0,0.0,34.97000000000001,34.97,34.97000000000001,34.97000000000001,34.97000000000001,7.105427357601002e-15,4.736951571734001e-15,27.47,20.07,23.905,24.04,20.07,2.7810834219778444,-2.4666666666666663
1 -> 2,3.243897000000002,3.2438969999999996,3.2438970000000005,3.243897000000001,3.243897000000002,1.0648885158809838e-15,-1.4802973661668753e-16,55.0,55.0,55.0,55.0,55.0,0.0,0.0,34.97000000000001,34.97,34.97000000000001,34.97000000000001,34.97000000000001,7.105427357601002e-15,4.736951571734001e-15,17.81,13.51,15.545,15.43,13.51,1.5944513162840688,-1.433333333333333
1 -> 2,3.243897000000002,3.2438969999999996,3.2438970000000005,3.243897000000001,3.243897000000002,1.0648885158809838e-15,-1.4802973661668753e-16,55.0,55.0,55.0,55.0,55.0,0.0,0.0,34.97000000000001,34.97,34.97000000000001,34.97000000000001,34.97000000000001,7.105427357601002e-15,4.736951571734001e-15,17.81,13.51,15.545,15.43,13.51,1.5944513162840688,-1.433333333333333
1 -> 2,3.243897000000002,3.2438969999999996,3.2438970000000005,3.243897000000001,3.243897000000002,1.0648885158809838e-15,-1.4802973661668753e-16,55.0,55.0,55.0,55.0,55.0,0.0,0.0,34.97000000000001,34.97,34.97000000000001,34.97000000000001,34.97000000000001,7.105427357601002e-15,4.736951571734001e-15,11.99,5.55,8.855,8.940000000000001,5.55,2.4121826216105613,-2.146666666666667
1 -> 2,3.243897000000002,3.2438969999999996,3.2438970000000005,3.243897000000001,3.243897000000002,1.0648885158809838e-15,-1.4802973661668753e-16,55.0,55.0,55.0,55.0,55.0,0.0,0.0,34.97000000000001,34.97,34.97000000000001,34.97000000000001,34.97000000000001,7.105427357601002e-15,4.736951571734001e-15,11.99,5.55,8.855,8.940000000000001,5.55,2.4121826216105613,-2.146666666666667
1 -> 2,3.243897000000002,3.2438969999999996,3.2438970000000005,3.243897000000001,3.243897000000002,1.0648885158809838e-15,-1.4802973661668753e-16,55.0,55.0,55.0,55.0,55.0,0.0,0.0,34.97000000000001,34.97,34.97000000000001,34.97000000000001,34.97000000000001,7.105427357601002e-15,4.736951571734001e-15,3.53,-1.53,1.0125,1.025,-1.53,1.8731574279808947,-1.6866666666666668
1 -> 2,3.243897000000002,3.2438969999999996,3.2438970000000005,3.243897000000001,3.243897000000002,1.0648885158809838e-15,-1.4802973661668753e-16,55.0,55.0,55.0,55.0,55.0,0.0,0.0,34.97000000000001,34.97,34.97000000000001,34.97000000000001,34.97000000000001,7.105427357601002e-15,4.736951571734001e-15,3.53,-1.53,1.0125,1.025,-1.53,1.8731574279808947,-1.6866666666666668
1 -> 2,3.243897000000002,3.2438969999999996,3.2438970000000005,3.243897000000001,3.243897000000002,1.0648885158809838e-15,-1.4802973661668753e-16,55.0,55.0,55.0,55.0,55.0,0.0,0.0,34.97000000000001,34.97,34.97000000000001,34.97000000000001,34.97000000000001,7.105427357601002e-15,4.736951571734001e-15,-3.89,-16.04,-9.5625,-9.16,-16.04,4.55374776969476,-4.05
1 -> 2,3.243897000000002,3.2438969999999996,3.2438970000000005,3.243897000000001,3.243897000000002,1.0648885158809838e-15,-1.4802973661668753e-16,55.0,55.0,55.0,55.0,55.0,0.0,0.0,34.97000000000001,34.97,34.97000000000001,34.97000000000001,34.97000000000001,7.105427357601002e-15,4.736951571734001e-15,-3.89,-16.04,-9.5625,-9.16,-16.04,4.55374776969476,-4.05
1 -> 2,3.243897000000002,3.2438969999999996,3.2438970000000005,3.243897000000001,3.243897000000002,1.0648885158809838e-15,-1.4802973661668753e-16,55.0,55.0,55.0,55.0,55.0,0.0,0.0,34.97000000000001,34.97,34.97000000000001,34.97000000000001,34.97000000000001,7.105427357601002e-15,4.736951571734001e-15,-21.13,-30.85,-26.769999999999996,-27.549999999999997,-30.85,3.7325594435989906,-3.2400000000000007
1 -> 2,3.243897000000002,3.2438969999999996,3.2438970000000005,3.243897000000001,3.243897000000002,1.0648885158809838e-15,-1.4802973661668753e-16,55.0,55.0,55.0,55.0,55.0,0.0,0.0,34.97000000000001,34.97,34.97000000000001,34.97000000000001,34.97000000000001,7.105427357601002e-15,4.736951571734001e-15,-21.13,-30.85,-26.769999999999996,-27.549999999999997,-30.85,3.7325594435989906,-3.2400000000000007
1 -> 2,3.243897000000002,3.2438969999999996,3.2438970000000005,3.243897000000001,3.243897000000002,1.0648885158809838e-15,-1.4802973661668753e-16,55.0,55.0,55.0,55.0,55.0,0.0,0.0,34.97000000000001,34.97,34.97000000000001,34.97000000000001,34.97000000000001,7.105427357601002e-15,4.736951571734001e-15,-14.0,-29.97,-22.8875,-23.79,-29.97,6.046388901650306,5.323333333333333
1 -> 2,3.243897000000002,3.2438969999999996,3.2438970000000005,3.243897000000001,3.243897000000002,1.0648885158809838e-15,-1.4802973661668753e-16,55.0,55.0,55.0,55.0,55.0,0.0,0.0,34.97000000000001,34.97,34.97000000000001,34.97000000000001,34.97000000000001,7.105427357601002e-15,4.736951571734001e-15,-14.0,-29.97,-22.8875,-23.79,-29.97,6.046388901650306,5.323333333333333
1 -> 2,3.238776000000002,3.2387759999999997,3.238776000000001,3.2387760000000014,3.238776000000002,9.42055475210265e-16,5.921189464667501e-16,55.0,55.0,55.0,55.0,55.0,0.0,0.0,34.97000000000001,34.97,34.97000000000001,34.97000000000001,34.97000000000001,7.105427357601002e-15,4.736951571734001e-15,14.01,-6.38,4.1875,4.5600000000000005,-6.38,7.617385952543037,6.796666666666667
1 -> 2,3.238776000000002,3.2387759999999997,3.238776000000001,3.2387760000000014,3.238776000000002,9.42055475210265e-16,5.921189464667501e-16,55.0,55.0,55.0,55.0,55.0,0.0,0.0,34.97000000000001,34.97,34.97000000000001,34.97000000000001,34.97000000000001,7.105427357601002e-15,4.736951571734001e-15,14.01,-6.38,4.1875,4.5600000000000005,-6.38,7.617385952543037,6.796666666666667
1 -> 2,3.238776000000002,3.2387759999999997,3.238776000000001,3.2387760000000014,3.238776000000002,9.42055475210265e-16,5.921189464667501e-16,55.0,55.0,55.0,55.0,55.0,0.0,0.0,34.97000000000001,34.97,34.97000000000001,34.97000000000001,34.97000000000001,7.105427357601002e-15,4.736951571734001e-15,27.34,19.03,23.7925,24.4,19.03,3.1592829487084564,2.7699999999999996
1 -> 2,3.238776000000002,3.2387759999999997,3.238776000000001,3.2387760000000014,3.238776000000002,9.42055475210265e-16,5.921189464667501e-16,55.0,55.0,55.0,55.0,55.0,0.0,0.0,34.97000000000001,34.97,34.97000000000001,34.97000000000001,34.97000000000001,7.105427357601002e-15,4.736951571734001e-15,27.34,19.03,23.7925,24.4,19.03,3.1592829487084564,2.7699999999999996
1 -> 2,3.238776000000002,3.2387759999999997,3.238776000000001,3.2387760000000014,3.238776000000002,9.42055475210265e-16,5.921189464667501e-16,55.0,55.0,55.0,55.0,55.0,0.0,0.0,34.97000000000001,34.97,34.97000000000001,34.97000000000001,34.97000000000001,7.105427357601002e-15,4.736951571734001e-15,27.66,23.87,26.01,26.255,23.87,1.448119470209554,-1.263333333333333
1 -> 2,3.238776000000002,3.2387759999999997,3.238776000000001,3.2387760000000014,3.238776000000002,9.42055475210265e-16,5.921189464667501e-16,55.0,55.0,55.0,55.0,55.0,0.0,0.0,34.97000000000001,34.97,34.97000000000001,34.97000000000001,34.97000000000001,7.105427357601002e-15,4.736951571734001e-15,27.66,23.87,26.01,26.255,23.87,1.448119470209554,-1.263333333333333
1 -> 2,3.238776000000002,3.2387759999999997,3.238776000000001,3.2387760000000014,3.238776000000002,9.42055475210265e-16,5.921189464667501e-16,55.0,55.0,55.0,55.0,55.0,0.0,0.0,34.97000000000001,34.97,34.97000000000001,34.97000000000001,34.97000000000001,7.105427357601002e-15,4.736951571734001e-15,22.21,18.06,20.0925,20.049999999999997,18.06,1.5424230126654628,-1.383333333333334
1 -> 2,3.238776000000002,3.2387759999999997,3.238776000000001,3.2387760000000014,3.238776000000002,9.42055475210265e-16,5.921189464667501e-16,55.0,55.0,55.0,55.0,55.0,0.0,0.0,34.97000000000001,34.97,34.97000000000001,34.97000000000001,34.97000000000001,7.105427357601002e-15,4.736951571734001e-15,22.21,18.06,20.0925,20.049999999999997,18.06,1.5424230126654628,-1.383333333333334
1 -> 2,3.241337000000002,3.241337,3.2413370000000015,3.2413370000000015,3.241337000000002,8.599750569898517e-16,1.4802973661668753e-16,70.0,70.0,70.0,70.0,70.0,0.0,0.0,34.97000000000001,34.97,34.97000000000001,34.97000000000001,34.97000000000001,7.105427357601002e-15,4.736951571734001e-15,16.63,10.83,13.86,13.99,10.83,2.1661832794110474,-1.933333333333333
1 -> 2,3.241337000000002,3.241337,3.2413370000000015,3.2413370000000015,3.241337000000002,8.599750569898517e-16,1.4802973661668753e-16,70.0,70.0,70.0,70.0,70.0,0.0,0.0,34.97000000000001,34.97,34.97000000000001,34.97000000000001,34.97000000000001,7.105427357601002e-15,4.736951571734001e-15,16.63,10.83,13.86,13.99,10.83,2.1661832794110474,-1.933333333333333
1 -> 2,3.241337000000002,3.241337,3.2413370000000015,3.2413370000000015,3.241337000000002,8.599750569898517e-16,1.4802973661668753e-16,70.0,70.0,70.0,70.0,70.0,0.0,0.0,34.97000000000001,34.97,34.97000000000001,34.97000000000001,34.97000000000001,7.105427357601002e-15,4.736951571734001e-15,8.48,1.59,4.9825,4.93,1.59,2.570908156663711,-2.296666666666667
1 -> 2,3.241337000000002,3.241337,3.2413370000000015,3.2413370000000015,3.241337000000002,8.599750569898517e-16,1.4802973661668753e-16,70.0,70.0,70.0,70.0,70.0,0.0,0.0,34.97000000000001,34.97,34.97000000000001,34.97000000000001,34.97000000000001,7.105427357601002e-15,4.736951571734001e-15,8.48,1.59,4.9825,4.93,1.59,2.570908156663711,-2.296666666666667
1 -> 2,3.241337000000002,3.241337,3.2413370000000015,3.2413370000000015,3.241337000000002,8.599750569898517e-16,1.4802973661668753e-16,70.0,70.0,70.0,70.0,70.0,0.0,0.0,34.97000000000001,34.97,34.97000000000001,34.97000000000001,34.97000000000001,7.105427357601002e-15,4.736951571734001e-15,-0.46,-7.19,-3.6925,-3.5599999999999996,-7.19,2.502472527321729,-2.2433333333333336
1 -> 2,3.241337000000002,3.241337,3.2413370000000015,3.2413370000000015,3.241337000000002,8.599750569898517e-16,1.4802973661668753e-16,70.0,70.0,70.0,70.0,70.0,0.0,0.0,34.97000000000001,34.97,34.97000000000001,34.97000000000001,34.97000000000001,7.105427357601002e-15,4.736951571734001e-15,-0.46,-7.19,-3.6925,-3.5599999999999996,-7.19,2.502472527321729,-2.2433333333333336
1 -> 2,3.241337000000002,3.241337,3.2413370000000015,3.2413370000000015,3.241337000000002,8.599750569898517e-16,1.4802973661668753e-16,70.0,70.0,70.0,70.0,70.0,0.0,0.0,34.97000000000001,34.97,34.97000000000001,34.97000000000001,34.97000000000001,7.105427357601002e-15,4.736951571734001e-15,-10.35,-22.71,-16.43,-16.33,-22.71,4.627899091380451,-4.12
1 -> 2,3.241337000000002,3.241337,3.2413370000000015,3.2413370000000015,3.241337000000002,8.599750569898517e-16,1.4802973661668753e-16,70.0,70.0,70.0,70.0,70.0,0.0,0.0,34.97000000000001,34.97,34.97000000000001,34.97000000000001,34.97000000000001,7.105427357601002e-15,4.736951571734001e-15,-10.35,-22.71,-16.43,-16.33,-22.71,4.627899091380451,-4.12
1 -> 2,3.241337000000002,3.241337,3.2413370000000015,3.2413370000000015,3.241337000000002,8.599750569898517e-16,1.4802973661668753e-16,70.0,70.0,70.0,70.0,70.0,0.0,0.0,34.97000000000001,34.97,34.97000000000001,34.97000000000001,34.97000000000001,7.105427357601002e-15,4.736951571734001e-15,-22.84,-27.58,-25.7675,-26.325000000000003,-27.58,1.7768142136982132,1.0700000000000003
1 -> 2,3.241337000000002,3.241337,3.2413370000000015,3.2413370000000015,3.241337000000002,8.599750569898517e-16,1.4802973661668753e-16,70.0,70.0,70.0,70.0,70.0,0.0,0.0,34.97000000000001,34.97,34.97000000000001,34.97000000000001,34.97000000000001,7.105427357601002e-15,4.736951571734001e-15,-22.84,-27.58,-25.7675,-26.325000000000003,-27.58,1.7768142136982132,1.0700000000000003
1 -> 2,3.241337000000002,3.241337,3.2413370000000015,3.2413370000000015,3.241337000000002,8.599750569898517e-16,1.4802973661668753e-16,70.0,70.0,70.0,70.0,70.0,0.0,0.0,34.97000000000001,34.97,34.97000000000001,34.97000000000001,34.97000000000001,7.105427357601002e-15,4.736951571734001e-15,7.01,-16.66,-4.8100000000000005,-4.795,-16.66,8.860047968267441,7.890000000000001
1 -> 2,3.241337000000002,3.241337,3.2413370000000015,3.2413370000000015,3.241337000000002,8.599750569898517e-16,1.4802973661668753e-16,70.0,70.0,70.0,70.0,70.0,0.0,0.0,34.97000000000001,34.97,34.97000000000001,34.97000000000001,34.97000000000001,7.105427357601002e-15,4.736951571734001e-15,7.01,-16.66,-4.8100000000000005,-4.795,-16.66,8.860047968267441,7.890000000000001
1 -> 2,3.241337000000002,3.241337,3.2413370000000015,3.2413370000000015,3.241337000000002,8.599750569898517e-16,1.4802973661668753e-16,70.0,70.0,70.0,70.0,70.0,0.0,0.0,34.97000000000001,34.97,34.97000000000001,34.97000000000001,34.97000000000001,7.105427357601002e-15,4.736951571734001e-15,25.22,13.51,19.927500000000002,20.490000000000002,13.51,4.388840251136967,3.903333333333333
1 -> 2,3.241337000000002,3.241337,3.2413370000000015,3.2413370000000015,3.241337000000002,8.599750569898517e-16,1.4802973661668753e-16,70.0,70.0,70.0,70.0,70.0,0.0,0.0,34.97000000000001,34.97,34.97000000000001,34.97000000000001,34.97000000000001,7.105427357601002e-15,4.736951571734001e-15,25.22,13.51,19.927500000000002,20.490000000000002,13.51,4.388840251136967,3.903333333333333
1 -> 2,3.241337000000002,3.241337,3.2413370000000015,3.2413370000000015,3.241337000000002,8.599750569898517e-16,1.4802973661668753e-16,70.0,70.0,70.0,70.0,70.0,0.0,0.0,34.97000000000001,34.97,34.97000000000001,34.97000000000001,34.97000000000001,7.105427357601002e-15,4.736951571734001e-15,30.95,27.38,29.405,29.645,27.38,1.3541510255506957,1.1900000000000002
1 -> 2,3.241337000000002,3.241337,3.2413370000000015,3.2413370000000015,3.241337000000002,8.599750569898517e-16,1.4802973661668753e-16,70.0,70.0,70.0,70.0,70.0,0.0,0.0,34.97000000000001,34.97,34.97000000000001,34.97000000000001,34.97000000000001,7.105427357601002e-15,4.736951571734001e-15,30.95,27.38,29.405,29.645,27.38,1.3541510255506957,1.1900000000000002
1 -> 2,3.252860000000002,3.2528599999999983,3.25286,3.25286,3.252860000000002,1.6764000044290905e-15,1.4802973661668753e-16,70.0,70.0,70.0,70.0,70.0,0.0,0.0,34.97000000000001,34.97,34.97000000000001,34.97000000000001,34.97000000000001,7.105427357601002e-15,4.736951571734001e-15,31.08,28.22,29.897499999999997,30.145,28.22,1.0960468739976406,-0.9533333333333331
1 -> 2,3.252860000000002,3.2528599999999983,3.25286,3.25286,3.252860000000002,1.6764000044290905e-15,1.4802973661668753e-16,70.0,70.0,70.0,70.0,70.0,0.0,0.0,34.97000000000001,34.97,34.97000000000001,34.97000000000001,34.97000000000001,7.105427357601002e-15,4.736951571734001e-15,31.08,28.22,29.897499999999997,30.145,28.22,1.0960468739976406,-0.9533333333333331
1 -> 2,3.252860000000002,3.2528599999999983,3.25286,3.25286,3.252860000000002,1.6764000044290905e-15,1.4802973661668753e-16,70.0,70.0,70.0,70.0,70.0,0.0,0.0,34.97000000000001,34.97,34.97000000000001,34.97000000000001,34.97000000000001,7.105427357601002e-15,4.736951571734001e-15,26.38,19.39,22.9575,23.03,19.39,2.611669724524906,-2.3299999999999996
1 -> 2,3.252860000000002,3.2528599999999983,3.25286,3.25286,3.252860000000002,1.6764000044290905e-15,1.4802973661668753e-16,70.0,70.0,70.0,70.0,70.0,0.0,0.0,34.97000000000001,34.97,34.97000000000001,34.97000000000001,34.97000000000001,7.105427357601002e-15,4.736951571734001e-15,26.38,19.39,22.9575,23.03,19.39,2.611669724524906,-2.3299999999999996
1 -> 2,3.252860000000002,3.2528599999999983,3.25286,3.25286,3.252860000000002,1.6764000044290905e-15,1.4802973661668753e-16,70.0,70.0,70.0,70.0,70.0,0.0,0.0,34.97000000000001,34.97,34.97000000000001,34.97000000000001,34.97000000000001,7.105427357601002e-15,4.736951571734001e-15,17.05,11.43,14.1325,14.024999999999999,11.43,2.0946166116977114,-1.8733333333333337
1 -> 2,3.252860000000002,3.2528599999999983,3.25286,3.25286,3.252860000000002,1.6764000044290905e-15,1.4802973661668753e-16,70.0,70.0,70.0,70.0,70.0,0.0,0.0,34.97000000000001,34.97,34.97000000000001,34.97000000000001,34.97000000000001,7.105427357601002e-15,4.736951571734001e-15,17.05,11.43,14.1325,14.024999999999999,11.43,2.0946166116977114,-1.8733333333333337
1 -> 2,3.252860000000002,3.2528599999999983,3.25286,3.25286,3.252860000000002,1.6764000044290905e-15,1.4802973661668753e-16,70.0,70.0,70.0,70.0,70.0,0.0,0.0,34.97000000000001,34.97,34.97000000000001,34.97000000000001,34.97000000000001,7.105427357601002e-15,4.736951571734001e-15,9.78,3.82,6.9125,7.025,3.82,2.222154078816318,-1.9866666666666664
1 -> 2,3.252860000000002,3.2528599999999983,3.25286,3.25286,3.252860000000002,1.6764000044290905e-15,1.4802973661668753e-16,70.0,70.0,70.0,70.0,70.0,0.0,0.0,34.97000000000001,34.97,34.97000000000001,34.97000000000001,34.97000000000001,7.105427357601002e-15,4.736951571734001e-15,9.78,3.82,6.9125,7.025,3.82,2.222154078816318,-1.9866666666666664
1 -> 2,3.243897000000002,3.2438969999999996,3.2438970000000005,3.243897000000001,3.243897000000002,1.0648885158809838e-15,-1.4802973661668753e-16,70.0,70.0,70.0,70.0,70.0,0.0,0.0,34.97000000000001,34.97,34.97000000000001,34.97000000000001,34.97000000000001,7.105427357601002e-15,4.736951571734001e-15,1.3,-9.26,-3.675,-3.37,-9.26,3.942844785177322,-3.5199999999999996
1 -> 2,3.243897000000002,3.2438969999999996,3.2438970000000005,3.243897000000001,3.243897000000002,1.0648885158809838e-15,-1.4802973661668753e-16,70.0,70.0,70.0,70.0,70.0,0.0,0.0,34.97000000000001,34.97,34.97000000000001,34.97000000000001,34.97000000000001,7.105427357601002e-15,4.736951571734001e-15,1.3,-9.26,-3.675,-3.37,-9.26,3.942844785177322,-3.5199999999999996
1 -> 2,3.243897000000002,3.2438969999999996,3.2438970000000005,3.243897000000001,3.243897000000002,1.0648885158809838e-15,-1.4802973661668753e-16,70.0,70.0,70.0,70.0,70.0,0.0,0.0,34.97000000000001,34.97,34.97000000000001,34.97000000000001,34.97000000000001,7.105427357601002e-15,4.736951571734001e-15,-14.07,-28.59,-21.5775,-21.825000000000003,-28.59,5.445509044157396,-4.84
1 -> 2,3.243897000000002,3.2438969999999996,3.2438970000000005,3.243897000000001,3.243897000000002,1.0648885158809838e-15,-1.4802973661668753e-16,70.0,70.0,70.0,70.0,70.0,0.0,0.0,34.97000000000001,34.97,34.97000000000001,34.97000000000001,34.97000000000001,7.105427357601002e-15,4.736951571734001e-15,-14.07,-28.59,-21.5775,-21.825000000000003,-28.59,5.445509044157396,-4.84
1 -> 2,3.243897000000002,3.2438969999999996,3.2438970000000005,3.243897000000001,3.243897000000002,1.0648885158809838e-15,-1.4802973661668753e-16,70.0,70.0,70.0,70.0,70.0,0.0,0.0,34.97000000000001,34.97,34.97000000000001,34.97000000000001,34.97000000000001,7.105427357601002e-15,4.736951571734001e-15,-24.18,-31.37,-28.92,-30.064999999999998,-31.37,2.889783728931977,2.3200000000000003
1 -> 2,3.243897000000002,3.2438969999999996,3.2438970000000005,3.243897000000001,3.243897000000002,1.0648885158809838e-15,-1.4802973661668753e-16,70.0,70.0,70.0,70.0,70.0,0.0,0.0,34.97000000000001,34.97,34.97000000000001,34.97000000000001,34.97000000000001,7.105427357601002e-15,4.736951571734001e-15,-24.18,-31.37,-28.92,-30.064999999999998,-31.37,2.889783728931977,2.3200000000000003
1 -> 2,3.243897000000002,3.2438969999999996,3.2438970000000005,3.243897000000001,3.243897000000002,1.0648885158809838e-15,-1.4802973661668753e-16,70.0,70.0,70.0,70.0,70.0,0.0,0.0,34.97000000000001,34.97,34.97000000000001,34.97000000000001,34.97000000000001,7.105427357601002e-15,4.736951571734001e-15,3.77,-17.59,-6.677499999999999,-6.445,-17.59,7.992175470421055,7.12
1 -> 2,3.243897000000002,3.2438969999999996,3.2438970000000005,3.243897000000001,3.243897000000002,1.0648885158809838e-15,-1.4802973661668753e-16,70.0,70.0,70.0,70.0,70.0,0.0,0.0,34.97000000000001,34.97,34.97000000000001,34.97000000000001,34.97000000000001,7.105427357601002e-15,4.736951571734001e-15,3.77,-17.59,-6.677499999999999,-6.445,-17.59,7.992175470421055,7.12
1 -> 2,3.237496000000002,3.237495999999999,3.237496,3.237496,3.237495999999999,1.5700924586837751e-15,0.0,76.33,76.33,76.33,76.33,76.33,0.0,0.0,34.97000000000001,34.97,34.97000000000001,34.97000000000001,34.97000000000001,7.105427357601002e-15,4.736951571734001e-15,17.84,9.06,13.982500000000002,14.515,9.06,3.308960372987262,2.9266666666666663
1 -> 2,3.237496000000002,3.237495999999999,3.237496,3.237496,3.237495999999999,1.5700924586837751e-15,0.0,76.33,76.33,76.33,76.33,76.33,0.0,0.0,34.97000000000001,34.97,34.97000000000001,34.97000000000001,34.97000000000001,7.105427357601002e-15,4.736951571734001e-15,17.84,9.06,13.982500000000002,14.515,9.06,3.308960372987262,2.9266666666666663
1 -> 2,3.237496000000002,3.237495999999999,3.237496,3.237496,3.237495999999999,1.5700924586837751e-15,0.0,76.33,76.33,76.33,76.33,76.33,0.0,0.0,34.97000000000001,34.97,34.97000000000001,34.97000000000001,34.97000000000001,7.105427357601002e-15,4.736951571734001e-15,19.04,17.04,18.335,18.630000000000003,17.04,0.7847451815717,-0.6100000000000007
1 -> 2,3.237496000000002,3.237495999999999,3.237496,3.237496,3.237495999999999,1.5700924586837751e-15,0.0,76.33,76.33,76.33,76.33,76.33,0.0,0.0,34.97000000000001,34.97,34.97000000000001,34.97000000000001,34.97000000000001,7.105427357601002e-15,4.736951571734001e-15,19.04,17.04,18.335,18.630000000000003,17.04,0.7847451815717,-0.6100000000000007
1 -> 2,3.237496000000002,3.237495999999999,3.237496,3.237496,3.237495999999999,1.5700924586837751e-15,0.0,76.33,76.33,76.33,76.33,76.33,0.0,0.0,34.97000000000001,34.97,34.97000000000001,34.97000000000001,34.97000000000001,7.105427357601002e-15,4.736951571734001e-15,15.27,10.56,12.755,12.594999999999999,10.56,1.7693854865461056,-1.5699999999999996
1 -> 2,3.237496000000002,3.237495999999999,3.237496,3.237496,3.237495999999999,1.5700924586837751e-15,0.0,76.33,76.33,76.33,76.33,76.33,0.0,0.0,34.97000000000001,34.97,34.97000000000001,34.97000000000001,34.97000000000001,7.105427357601002e-15,4.736951571734001e-15,15.27,10.56,12.755,12.594999999999999,10.56,1.7693854865461056,-1.5699999999999996
1 -> 2,3.237496000000002,3.237495999999999,3.237496,3.237496,3.237495999999999,1.5700924586837751e-15,0.0,76.33,76.33,76.33,76.33,76.33,0.0,0.0,34.97000000000001,34.97,34.97000000000001,34.97000000000001,34.97000000000001,7.105427357601002e-15,4.736951571734001e-15,9.79,9.23,9.41,9.31,9.23,0.22726636354726973,-0.183333333333333
1 -> 2,3.237496000000002,3.237495999999999,3.237496,3.237496,3.237495999999999,1.5700924586837751e-15,0.0,76.33,76.33,76.33,76.33,76.33,0.0,0.0,34.97000000000001,34.97,34.97000000000001,34.97000000000001,34.97000000000001,7.105427357601002e-15,4.736951571734001e-15,9.79,9.23,9.41,9.31,9.23,0.22726636354726973,-0.183333333333333
1 -> 2,3.238776000000002,3.2387759999999997,3.238776000000001,3.2387760000000014,3.238776000000002,9.42055475210265e-16,5.921189464667501e-16,76.33,76.33,76.33,76.33,76.33,0.0,0.0,34.97000000000001,34.97,34.97000000000001,34.97000000000001,34.97000000000001,7.105427357601002e-15,4.736951571734001e-15,9.4,8.97,9.254999999999999,9.325,8.97,0.1674066904278319,-0.11666666666666654
1 -> 2,3.238776000000002,3.2387759999999997,3.238776000000001,3.2387760000000014,3.238776000000002,9.42055475210265e-16,5.921189464667501e-16,76.33,76.33,76.33,76.33,76.33,0.0,0.0,34.97000000000001,34.97,34.97000000000001,34.97000000000001,34.97000000000001,7.105427357601002e-15,4.736951571734001e-15,9.4,8.97,9.254999999999999,9.325,8.97,0.1674066904278319,-0.11666666666666654
1 -> 2,3.238776000000002,3.2387759999999997,3.238776000000001,3.2387760000000014,3.238776000000002,9.42055475210265e-16,5.921189464667501e-16,76.33,76.33,76.33,76.33,76.33,0.0,0.0,34.97000000000001,34.97,34.97000000000001,34.97000000000001,34.97000000000001,7.105427357601002e-15,4.736951571734001e-15,8.17,1.74,5.3475,5.74,1.74,2.423513719787862,-2.143333333333333
1 -> 2,3.238776000000002,3.2387759999999997,3.238776000000001,3.2387760000000014,3.238776000000002,9.42055475210265e-16,5.921189464667501e-16,76.33,76.33,76.33,76.33,76.33,0.0,0.0,34.97000000000001,34.97,34.97000000000001,34.97000000000001,34.97000000000001,7.105427357601002e-15,4.736951571734001e-15,8.17,1.74,5.3475,5.74,1.74,2.423513719787862,-2.143333333333333
1 -> 2,3.238776000000002,3.2387759999999997,3.238776000000001,3.2387760000000014,3.238776000000002,9.42055475210265e-16,5.921189464667501e-16,76.33,76.33,76.33,76.33,76.33,0.0,0.0,34.97000000000001,34.97,34.97000000000001,34.97000000000001,34.97000000000001,7.105427357601002e-15,4.736951571734001e-15,-2.08,-17.77,-9.649999999999999,-9.375,-17.77,5.860516188869372,-5.2299999999999995
1 -> 2,3.238776000000002,3.2387759999999997,3.238776000000001,3.2387760000000014,3.238776000000002,9.42055475210265e-16,5.921189464667501e-16,76.33,76.33,76.33,76.33,76.33,0.0,0.0,34.97000000000001,34.97,34.97000000000001,34.97000000000001,34.97000000000001,7.105427357601002e-15,4.736951571734001e-15,-2.08,-17.77,-9.649999999999999,-9.375,-17.77,5.860516188869372,-5.2299999999999995
1 -> 2,3.238776000000002,3.2387759999999997,3.238776000000001,3.2387760000000014,3.238776000000002,9.42055475210265e-16,5.921189464667501e-16,76.33,76.33,76.33,76.33,76.33,0.0,0.0,34.97000000000001,34.97,34.97000000000001,34.97000000000001,34.97000000000001,7.105427357601002e-15,4.736951571734001e-15,-23.83,-42.29,-33.129999999999995,-33.2,-42.29,6.892009866504836,-6.153333333333333
1 -> 2,3.238776000000002,3.2387759999999997,3.238776000000001,3.2387760000000014,3.238776000000002,9.42055475210265e-16,5.921189464667501e-16,76.33,76.33,76.33,76.33,76.33,0.0,0.0,34.97000000000001,34.97,34.97000000000001,34.97000000000001,34.97000000000001,7.105427357601002e-15,4.736951571734001e-15,-23.83,-42.29,-33.129999999999995,-33.2,-42.29,6.892009866504836,-6.153333333333333
1 -> 2,3.231094000000002,3.2310939999999992,3.2310940000000006,3.2310940000000006,3.231094000000002,1.2362920382602608e-15,1.4802973661668753e-16,76.33,76.33,76.33,76.33,76.33,0.0,0.0,34.97000000000001,34.97,34.97000000000001,34.97000000000001,34.97000000000001,7.105427357601002e-15,4.736951571734001e-15,-47.36,-52.03,-50.230000000000004,-50.765,-52.03,1.7360443542720914,-1.1166666666666671
1 -> 2,3.231094000000002,3.2310939999999992,3.2310940000000006,3.2310940000000006,3.231094000000002,1.2362920382602608e-15,1.4802973661668753e-16,76.33,76.33,76.33,76.33,76.33,0.0,0.0,34.97000000000001,34.97,34.97000000000001,34.97000000000001,34.97000000000001,7.105427357601002e-15,4.736951571734001e-15,-47.36,-52.03,-50.230000000000004,-50.765,-52.03,1.7360443542720914,-1.1166666666666671
1 -> 2,3.231094000000002,3.2310939999999992,3.2310940000000006,3.2310940000000006,3.231094000000002,1.2362920382602608e-15,1.4802973661668753e-16,76.33,76.33,76.33,76.33,76.33,0.0,0.0,34.97000000000001,34.97,34.97000000000001,34.97000000000001,34.97000000000001,7.105427357601002e-15,4.736951571734001e-15,-28.61,-47.06,-38.1575,-38.48,-47.06,6.90728012679376,6.150000000000001
1 -> 2,3.231094000000002,3.2310939999999992,3.2310940000000006,3.2310940000000006,3.231094000000002,1.2362920382602608e-15,1.4802973661668753e-16,76.33,76.33,76.33,76.33,76.33,0.0,0.0,34.97000000000001,34.97,34.97000000000001,34.97000000000001,34.97000000000001,7.105427357601002e-15,4.736951571734001e-15,-28.61,-47.06,-38.1575,-38.48,-47.06,6.90728012679376,6.150000000000001
1 -> 2,3.231094000000002,3.2310939999999992,3.2310940000000006,3.2310940000000006,3.231094000000002,1.2362920382602608e-15,1.4802973661668753e-16,76.33,76.33,76.33,76.33,76.33,0.0,0.0,34.97000000000001,34.97,34.97000000000001,34.97000000000001,34.97000000000001,7.105427357601002e-15,4.736951571734001e-15,-3.97,-22.0,-12.7875,-12.59,-22.0,6.727894823048291,6.010000000000001
1 -> 2,3.231094000000002,3.2310939999999992,3.2310940000000006,3.2310940000000006,3.231094000000002,1.2362920382602608e-15,1.4802973661668753e-16,76.33,76.33,76.33,76.33,76.33,0.0,0.0,34.97000000000001,34.97,34.97000000000001,34.97000000000001,34.97000000000001,7.105427357601002e-15,4.736951571734001e-15,-3.97,-22.0,-12.7875,-12.59,-22.0,6.727894823048291,6.010000000000001
1 -> 2,3.231094000000002,3.2310939999999992,3.2310940000000006,3.2310940000000006,3.231094000000002,1.2362920382602608e-15,1.4802973661668753e-16,76.33,76.33,76.33,76.33,76.33,0.0,0.0,34.97000000000001,34.97,34.97000000000001,34.97000000000001,34.97000000000001,7.105427357601002e-15,4.736951571734001e-15,9.67,0.92,5.789999999999999,6.285,0.92,3.293167168547628,2.9166666666666665
1 -> 2,3.231094000000002,3.2310939999999992,3.2310940000000006,3.2310940000000006,3.231094000000002,1.2362920382602608e-15,1.4802973661668753e-16,76.33,76.33,76.33,76.33,76.33,0.0,0.0,34.97000000000001,34.97,34.97000000000001,34.97000000000001,34.97000000000001,7.105427357601002e-15,4.736951571734001e-15,9.67,0.92,5.789999999999999,6.285,0.92,3.293167168547628,2.9166666666666665
1 -> 2,3.223412000000002,3.2234119999999984,3.223412,3.2234120000000006,3.223412000000002,1.6764000044290905e-15,-1.4802973661668753e-16,76.33,76.33,76.33,76.33,76.33,0.0,0.0,34.97000000000001,34.97,34.97000000000001,34.97000000000001,34.97000000000001,7.105427357601002e-15,4.736951571734001e-15,15.36,11.05,13.11,13.015,11.05,1.608306562816927,1.4366666666666663
1 -> 2,3.223412000000002,3.2234119999999984,3.223412,3.2234120000000006,3.223412000000002,1.6764000044290905e-15,-1.4802973661668753e-16,76.33,76.33,76.33,76.33,76.33,0.0,0.0,34.97000000000001,34.97,34.97000000000001,34.97000000000001,34.97000000000001,7.105427357601002e-15,4.736951571734001e-15,15.36,11.05,13.11,13.015,11.05,1.608306562816927,1.4366666666666663
1 -> 2,3.223412000000002,3.2234119999999984,3.223412,3.2234120000000006,3.223412000000002,1.6764000044290905e-15,-1.4802973661668753e-16,76.33,76.33,76.33,76.33,76.33,0.0,0.0,34.97000000000001,34.97,34.97000000000001,34.97000000000001,34.97000000000001,7.105427357601002e-15,4.736951571734001e-15,18.28,16.93,17.7025,17.799999999999997,16.93,0.5113890397730484,0.2166666666666662
1 -> 2,3.223412000000002,3.2234119999999984,3.223412,3.2234120000000006,3.223412000000002,1.6764000044290905e-15,-1.4802973661668753e-16,76.33,76.33,76.33,76.33,76.33,0.0,0.0,34.97000000000001,34.97,34.97000000000001,34.97000000000001,34.97000000000001,7.105427357601002e-15,4.736951571734001e-15,18.28,16.93,17.7025,17.799999999999997,16.93,0.5113890397730484,0.2166666666666662
1 -> 2,3.223412000000002,3.2234119999999984,3.223412,3.2234120000000006,3.223412000000002,1.6764000044290905e-15,-1.4802973661668753e-16,76.33,76.33,76.33,76.33,76.33,0.0,0.0,34.97000000000001,34.97,34.97000000000001,34.97000000000001,34.97000000000001,7.105427357601002e-15,4.736951571734001e-15,16.03,9.16,12.6875,12.78,9.16,2.5676095400196663,-2.2900000000000005
1 -> 2,3.223412000000002,3.2234119999999984,3.223412,3.2234120000000006,3.223412000000002,1.6764000044290905e-15,-1.4802973661668753e-16,76.33,76.33,76.33,76.33,76.33,0.0,0.0,34.97000000000001,34.97,34.97000000000001,34.97000000000001,34.97000000000001,7.105427357601002e-15,4.736951571734001e-15,16.03,9.16,12.6875,12.78,9.16,2.5676095400196663,-2.2900000000000005
1 -> 2,3.223412000000002,3.2234119999999984,3.223412,3.2234120000000006,3.223412000000002,1.6764000044290905e-15,-1.4802973661668753e-16,76.33,76.33,76.33,76.33,76.33,0.0,0.0,34.97000000000001,34.97,34.97000000000001,34.97000000000001,34.97000000000001,7.105427357601002e-15,4.736951571734001e-15,6.55,-2.65,2.0574999999999997,2.165,-2.65,3.4329387920555763,-3.0666666666666664
1 -> 2,3.223412000000002,3.2234119999999984,3.223412,3.2234120000000006,3.223412000000002,1.6764000044290905e-15,-1.4802973661668753e-16,76.33,76.33,76.33,76.33,76.33,0.0,0.0,34.97000000000001,34.97,34.97000000000001,34.97000000000001,34.97000000000001,7.105427357601002e-15,4.736951571734001e-15,6.55,-2.65,2.0574999999999997,2.165,-2.65,3.4329387920555763,-3.0666666666666664
1 -> 2,3.223412000000002,3.2234119999999984,3.223412,3.2234120000000006,3.223412000000002,1.6764000044290905e-15,-1.4802973661668753e-16,72.5,72.5,72.5,72.5,72.5,0.0,0.0,34.97000000000001,34.97,34.97000000000001,34.97000000000001,34.97000000000001,7.105427357601002e-15,4.736951571734001e-15,-5.94,-15.69,-10.785,-10.754999999999999,-15.69,3.62708216063546,-3.25
1 -> 2,3.223412000000002,3.2234119999999984,3.223412,3.2234120000000006,3.223412000000002,1.6764000044290905e-15,-1.4802973661668753e-16,72.5,72.5,72.5,72.5,72.5,0.0,0.0,34.97000000000001,34.97,34.97000000000001,34.97000000000001,34.97000000000001,7.105427357601002e-15,4.736951571734001e-15,-5.94,-15.69,-10.785,-10.754999999999999,-15.69,3.62708216063546,-3.25
1 -> 2,3.223412000000002,3.2234119999999984,3.223412,3.2234120000000006,3.223412000000002,1.6764000044290905e-15,-1.4802973661668753e-16,72.5,72.5,72.5,72.5,72.5,0.0,0.0,34.97000000000001,34.97,34.97000000000001,34.97000000000001,34.97000000000001,7.105427357601002e-15,4.736951571734001e-15,-19.39,-30.6,-25.200000000000003,-25.405,-30.6,4.209530852719814,-3.736666666666667
1 -> 2,3.223412000000002,3.2234119999999984,3.223412,3.2234120000000006,3.223412000000002,1.6764000044290905e-15,-1.4802973661668753e-16,72.5,72.5,72.5,72.5,72.5,0.0,0.0,34.97000000000001,34.97,34.97000000000001,34.97000000000001,34.97000000000001,7.105427357601002e-15,4.736951571734001e-15,-19.39,-30.6,-25.200000000000003,-25.405,-30.6,4.209530852719814,-3.736666666666667
1 -> 2,3.223412000000002,3.2234119999999984,3.223412,3.2234120000000006,3.223412000000002,1.6764000044290905e-15,-1.4802973661668753e-16,72.5,72.5,72.5,72.5,72.5,0.0,0.0,34.97000000000001,34.97,34.97000000000001,34.97000000000001,34.97000000000001,7.105427357601002e-15,4.736951571734001e-15,-22.42,-32.19,-28.5475,-29.79,-32.19,3.8561468786860273,3.2566666666666655
1 -> 2,3.223412000000002,3.2234119999999984,3.223412,3.2234120000000006,3.223412000000002,1.6764000044290905e-15,-1.4802973661668753e-16,72.5,72.5,72.5,72.5,72.5,0.0,0.0,34.97000000000001,34.97,34.97000000000001,34.97000000000001,34.97000000000001,7.105427357601002e-15,4.736951571734001e-15,-22.42,-32.19,-28.5475,-29.79,-32.19,3.8561468786860273,3.2566666666666655
1 -> 2,3.223412000000002,3.2234119999999984,3.223412,3.2234120000000006,3.223412000000002,1.6764000044290905e-15,-1.4802973661668753e-16,72.5,72.5,72.5,72.5,72.5,0.0,0.0,34.97000000000001,34.97,34.97000000000001,34.97000000000001,34.97000000000001,7.105427357601002e-15,4.736951571734001e-15,9.56,-15.02,-2.6749999999999994,-2.62,-15.02,9.177119646163495,8.193333333333333
1 -> 2,3.223412000000002,3.2234119999999984,3.223412,3.2234120000000006,3.223412000000002,1.6764000044290905e-15,-1.4802973661668753e-16,72.5,72.5,72.5,72.5,72.5,0.0,0.0,34.97000000000001,34.97,34.97000000000001,34.97000000000001,34.97000000000001,7.105427357601002e-15,4.736951571734001e-15,9.56,-15.02,-2.6749999999999994,-2.62,-15.02,9.177119646163495,8.193333333333333
1 -> 2,3.220851000000002,3.2208509999999997,3.2208510000000006,3.220851000000001,3.220851000000002,1.0648885158809838e-15,1.4802973661668753e-16,72.5,72.5,72.5,72.5,72.5,0.0,0.0,34.97000000000001,34.97,34.97000000000001,34.97000000000001,34.97000000000001,7.105427357601002e-15,4.736951571734001e-15,38.15,17.16,27.807499999999997,27.96,17.16,7.828854881143218,6.996666666666666
1 -> 2,3.220851000000002,3.2208509999999997,3.2208510000000006,3.220851000000001,3.220851000000002,1.0648885158809838e-15,1.4802973661668753e-16,72.5,72.5,72.5,72.5,72.5,0.0,0.0,34.97000000000001,34.97,34.97000000000001,34.97000000000001,34.97000000000001,7.105427357601002e-15,4.736951571734001e-15,38.15,17.16,27.807499999999997,27.96,17.16,7.828854881143218,6.996666666666666
1 -> 2,3.220851000000002,3.2208509999999997,3.2208510000000006,3.220851000000001,3.220851000000002,1.0648885158809838e-15,1.4802973661668753e-16,72.5,72.5,72.5,72.5,72.5,0.0,0.0,34.97000000000001,34.97,34.97000000000001,34.97000000000001,34.97000000000001,7.105427357601002e-15,4.736951571734001e-15,52.68,44.05,49.2425,50.12,44.05,3.338475512865117,2.8766666666666674
1 -> 2,3.220851000000002,3.2208509999999997,3.2208510000000006,3.220851000000001,3.220851000000002,1.0648885158809838e-15,1.4802973661668753e-16,72.5,72.5,72.5,72.5,72.5,0.0,0.0,34.97000000000001,34.97,34.97000000000001,34.97000000000001,34.97000000000001,7.105427357601002e-15,4.736951571734001e-15,52.68,44.05,49.2425,50.12,44.05,3.338475512865117,2.8766666666666674
1 -> 2,3.220851000000002,3.2208509999999997,3.2208510000000006,3.220851000000001,3.220851000000002,1.0648885158809838e-15,1.4802973661668753e-16,72.5,72.5,72.5,72.5,72.5,0.0,0.0,34.97000000000001,34.97,34.97000000000001,34.97000000000001,34.97000000000001,7.105427357601002e-15,4.736951571734001e-15,52.22,46.71,49.59,49.715,46.71,2.0750060240876405,-1.836666666666666
1 -> 2,3.220851000000002,3.2208509999999997,3.2208510000000006,3.220851000000001,3.220851000000002,1.0648885158809838e-15,1.4802973661668753e-16,72.5,72.5,72.5,72.5,72.5,0.0,0.0,34.97000000000001,34.97,34.97000000000001,34.97000000000001,34.97000000000001,7.105427357601002e-15,4.736951571734001e-15,52.22,46.71,49.59,49.715,46.71,2.0750060240876405,-1.836666666666666
1 -> 2,3.220851000000002,3.2208509999999997,3.2208510000000006,3.220851000000001,3.220851000000002,1.0648885158809838e-15,1.4802973661668753e-16,72.5,72.5,72.5,72.5,72.5,0.0,0.0,34.97000000000001,34.97,34.97000000000001,34.97000000000001,34.97000000000001,7.105427357601002e-15,4.736951571734001e-15,44.89,40.56,42.6525,42.58,40.56,1.6127364167773974,-1.4433333333333327
1 -> 2,3.220851000000002,3.2208509999999997,3.2208510000000006,3.220851000000001,3.220851000000002,1.0648885158809838e-15,1.4802973661668753e-16,72.5,72.5,72.5,72.5,72.5,0.0,0.0,34.97000000000001,34.97,34.97000000000001,34.97000000000001,34.97000000000001,7.105427357601002e-15,4.736951571734001e-15,44.89,40.56,42.6525,42.58,40.56,1.6127364167773974,-1.4433333333333327
1 -> 2,3.1926840000000016,3.192683999999998,3.1926840000000003,3.1926840000000007,3.1926840000000016,1.472877282518059e-15,5.921189464667501e-16,72.5,72.5,72.5,72.5,72.5,0.0,0.0,34.97000000000001,34.97,34.97000000000001,34.97000000000001,34.97000000000001,7.105427357601002e-15,4.736951571734001e-15,39.36,35.21,37.4,37.515,35.21,1.542903107780913,-1.3833333333333329
1 -> 2,3.1926840000000016,3.192683999999998,3.1926840000000003,3.1926840000000007,3.1926840000000016,1.472877282518059e-15,5.921189464667501e-16,72.5,72.5,72.5,72.5,72.5,0.0,0.0,34.97000000000001,34.97,34.97000000000001,34.97000000000001,34.97000000000001,7.105427357601002e-15,4.736951571734001e-15,39.36,35.21,37.4,37.515,35.21,1.542903107780913,-1.3833333333333329
1 -> 2,3.1926840000000016,3.192683999999998,3.1926840000000003,3.1926840000000007,3.1926840000000016,1.472877282518059e-15,5.921189464667501e-16,72.5,72.5,72.5,72.5,72.5,0.0,0.0,34.97000000000001,34.97,34.97000000000001,34.97000000000001,34.97000000000001,7.105427357601002e-15,4.736951571734001e-15,33.02,23.19,28.3275,28.549999999999997,23.19,3.6773045495308114,-3.2766666666666673
1 -> 2,3.1926840000000016,3.192683999999998,3.1926840000000003,3.1926840000000007,3.1926840000000016,1.472877282518059e-15,5.921189464667501e-16,72.5,72.5,72.5,72.5,72.5,0.0,0.0,34.97000000000001,34.97,34.97000000000001,34.97000000000001,34.97000000000001,7.105427357601002e-15,4.736951571734001e-15,33.02,23.19,28.3275,28.549999999999997,23.19,3.6773045495308114,-3.2766666666666673
1 -> 2,3.1926840000000016,3.192683999999998,3.1926840000000003,3.1926840000000007,3.1926840000000016,1.472877282518059e-15,5.921189464667501e-16,72.5,72.5,72.5,72.5,72.5,0.0,0.0,34.97000000000001,34.97,34.97000000000001,34.97000000000001,34.97000000000001,7.105427357601002e-15,4.736951571734001e-15,19.44,9.11,14.195,14.115,9.11,3.8468851035610623,-3.443333333333334
1 -> 2,3.1926840000000016,3.192683999999998,3.1926840000000003,3.1926840000000007,3.1926840000000016,1.472877282518059e-15,5.921189464667501e-16,72.5,72.5,72.5,72.5,72.5,0.0,0.0,34.97000000000001,34.97,34.97000000000001,34.97000000000001,34.97000000000001,7.105427357601002e-15,4.736951571734001e-15,19.44,9.11,14.195,14.115,9.11,3.8468851035610623,-3.443333333333334
1 -> 2,3.1926840000000016,3.192683999999998,3.1926840000000003,3.1926840000000007,3.1926840000000016,1.472877282518059e-15,5.921189464667501e-16,72.5,72.5,72.5,72.5,72.5,0.0,0.0,34.97000000000001,34.97,34.97000000000001,34.97000000000001,34.97000000000001,7.105427357601002e-15,4.736951571734001e-15,5.65,-8.41,-1.02,-0.6599999999999999,-8.41,5.2536939385540915,-4.6866666666666665
1 -> 2,3.1926840000000016,3.192683999999998,3.1926840000000003,3.1926840000000007,3.1926840000000016,1.472877282518059e-15,5.921189464667501e-16,72.5,72.5,72.5,72.5,72.5,0.0,0.0,34.97000000000001,34.97,34.97000000000001,34.97000000000001,34.97000000000001,7.105427357601002e-15,4.736951571734001e-15,5.65,-8.41,-1.02,-0.6599999999999999,-8.41,5.2536939385540915,-4.6866666666666665
1 -> 2,3.1901230000000016,3.1901229999999985,3.1901230000000007,3.190123000000001,3.1901230000000016,1.2755491433176288e-15,7.401486830834377e-16,72.5,72.5,72.5,72.5,72.5,0.0,0.0,34.97000000000001,34.97,34.97000000000001,34.97000000000001,34.97000000000001,7.105427357601002e-15,4.736951571734001e-15,-14.05,-23.98,-19.977500000000003,-20.939999999999998,-23.98,3.854097657039842,-3.31
1 -> 2,3.1901230000000016,3.1901229999999985,3.1901230000000007,3.190123000000001,3.1901230000000016,1.2755491433176288e-15,7.401486830834377e-16,72.5,72.5,72.5,72.5,72.5,0.0,0.0,34.97000000000001,34.97,34.97000000000001,34.97000000000001,34.97000000000001,7.105427357601002e-15,4.736951571734001e-15,-14.05,-23.98,-19.977500000000003,-20.939999999999998,-23.98,3.854097657039842,-3.31
1 -> 2,3.1901230000000016,3.1901229999999985,3.1901230000000007,3.190123000000001,3.1901230000000016,1.2755491433176288e-15,7.401486830834377e-16,72.5,72.5,72.5,72.5,72.5,0.0,0.0,34.97000000000001,34.97,34.97000000000001,34.97000000000001,34.97000000000001,7.105427357601002e-15,4.736951571734001e-15,-7.22,-22.57,-15.4775,-16.060000000000002,-22.57,5.7871684570262865,5.116666666666667
1 -> 2,3.1901230000000016,3.1901229999999985,3.1901230000000007,3.190123000000001,3.1901230000000016,1.2755491433176288e-15,7.401486830834377e-16,72.5,72.5,72.5,72.5,72.5,0.0,0.0,34.97000000000001,34.97,34.97000000000001,34.97000000000001,34.97000000000001,7.105427357601002e-15,4.736951571734001e-15,-7.22,-22.57,-15.4775,-16.060000000000002,-22.57,5.7871684570262865,5.116666666666667
1 -> 2,3.1901230000000016,3.1901229999999985,3.1901230000000007,3.190123000000001,3.1901230000000016,1.2755491433176288e-15,7.401486830834377e-16,72.5,72.5,72.5,72.5,72.5,0.0,0.0,34.97000000000001,34.97,34.97000000000001,34.97000000000001,34.97000000000001,7.105427357601002e-15,4.736951571734001e-15,11.49,-1.28,5.5825,6.06,-1.28,4.783363748451502,4.256666666666667
1 -> 2,3.1901230000000016,3.1901229999999985,3.1901230000000007,3.190123000000001,3.1901230000000016,1.2755491433176288e-15,7.401486830834377e-16,72.5,72.5,72.5,72.5,72.5,0.0,0.0,34.97000000000001,34.97,34.97000000000001,34.97000000000001,34.97000000000001,7.105427357601002e-15,4.736951571734001e-15,11.49,-1.28,5.5825,6.06,-1.28,4.783363748451502,4.256666666666667
1 -> 2,3.1901230000000016,3.1901229999999985,3.1901230000000007,3.190123000000001,3.1901230000000016,1.2755491433176288e-15,7.401486830834377e-16,72.5,72.5,72.5,72.5,72.5,0.0,0.0,34.97000000000001,34.97,34.97000000000001,34.97000000000001,34.97000000000001,7.105427357601002e-15,4.736951571734001e-15,16.05,13.88,15.305000000000001,15.645,13.88,0.8583268608170199,0.6733333333333332
1 -> 2,3.1901230000000016,3.1901229999999985,3.1901230000000007,3.190123000000001,3.1901230000000016,1.2755491433176288e-15,7.401486830834377e-16,72.5,72.5,72.5,72.5,72.5,0.0,0.0,34.97000000000001,34.97,34.97000000000001,34.97000000000001,34.97000000000001,7.105427357601002e-15,4.736951571734001e-15,16.05,13.88,15.305000000000001,15.645,13.88,0.8583268608170199,0.6733333333333332
1 -> 2,3.1901230000000016,3.1901229999999985,3.1901230000000007,3.190123000000001,3.1901230000000016,1.2755491433176288e-15,7.401486830834377e-16,70.0,70.0,70.0,70.0,70.0,0.0,0.0,34.97000000000001,34.97,34.97000000000001,34.97000000000001,34.97000000000001,7.105427357601002e-15,4.736951571734001e-15,15.1,11.38,13.232500000000002,13.225000000000001,11.38,1.396770829449126,-1.2399999999999995
1 -> 2,3.1901230000000016,3.1901229999999985,3.1901230000000007,3.190123000000001,3.1901230000000016,1.2755491433176288e-15,7.401486830834377e-16,70.0,70.0,70.0,70.0,70.0,0.0,0.0,34.97000000000001,34.97,34.97000000000001,34.97000000000001,34.97000000000001,7.105427357601002e-15,4.736951571734001e-15,15.1,11.38,13.232500000000002,13.225000000000001,11.38,1.396770829449126,-1.2399999999999995
1 -> 2,3.1901230000000016,3.1901229999999985,3.1901230000000007,3.190123000000001,3.1901230000000016,1.2755491433176288e-15,7.401486830834377e-16,70.0,70.0,70.0,70.0,70.0,0.0,0.0,34.97000000000001,34.97,34.97000000000001,34.97000000000001,34.97000000000001,7.105427357601002e-15,4.736951571734001e-15,10.53,10.08,10.254999999999999,10.205,10.08,0.17979154596365193,-0.07666666666666622
1 -> 2,3.1901230000000016,3.1901229999999985,3.1901230000000007,3.190123000000001,3.1901230000000016,1.2755491433176288e-15,7.401486830834377e-16,70.0,70.0,70.0,70.0,70.0,0.0,0.0,34.97000000000001,34.97,34.97000000000001,34.97000000000001,34.97000000000001,7.105427357601002e-15,4.736951571734001e-15,10.53,10.08,10.254999999999999,10.205,10.08,0.17979154596365193,-0.07666666666666622
1 -> 2,3.1901230000000016,3.1901229999999985,3.1901230000000007,3.190123000000001,3.1901230000000016,1.2755491433176288e-15,7.401486830834377e-16,70.0,70.0,70.0,70.0,70.0,0.0,0.0,34.97000000000001,34.97,34.97000000000001,34.97000000000001,34.97000000000001,7.105427357601002e-15,4.736951571734001e-15,10.95,10.6,10.8325,10.89,10.6,0.1409565535901044,0.11333333333333329
1 -> 2,3.1901230000000016,3.1901229999999985,3.1901230000000007,3.190123000000001,3.1901230000000016,1.2755491433176288e-15,7.401486830834377e-16,70.0,70.0,70.0,70.0,70.0,0.0,0.0,34.97000000000001,34.97,34.97000000000001,34.97000000000001,34.97000000000001,7.105427357601002e-15,4.736951571734001e-15,10.95,10.6,10.8325,10.89,10.6,0.1409565535901044,0.11333333333333329
1 -> 2,3.1901230000000016,3.1901229999999985,3.1901230000000007,3.190123000000001,3.1901230000000016,1.2755491433176288e-15,7.401486830834377e-16,70.0,70.0,70.0,70.0,70.0,0.0,0.0,34.97000000000001,34.97,34.97000000000001,34.97000000000001,34.97000000000001,7.105427357601002e-15,4.736951571734001e-15,10.86,10.47,10.6975,10.73,10.47,0.1460094175044879,-0.1299999999999996
1 -> 2,3.1901230000000016,3.1901229999999985,3.1901230000000007,3.190123000000001,3.1901230000000016,1.2755491433176288e-15,7.401486830834377e-16,70.0,70.0,70.0,70.0,70.0,0.0,0.0,34.97000000000001,34.97,34.97000000000001,34.97000000000001,34.97000000000001,7.105427357601002e-15,4.736951571734001e-15,10.86,10.47,10.6975,10.73,10.47,0.1460094175044879,-0.1299999999999996
1 -> 2,3.1926840000000016,3.192683999999998,3.1926840000000003,3.1926840000000007,3.1926840000000016,1.472877282518059e-15,5.921189464667501e-16,70.0,70.0,70.0,70.0,70.0,0.0,0.0,34.97000000000001,34.97,34.97000000000001,34.97000000000001,34.97000000000001,7.105427357601002e-15,4.736951571734001e-15,10.04,7.11,8.690000000000001,8.805,7.11,1.1017486101647687,-0.9766666666666662
1 -> 2,3.1926840000000016,3.192683999999998,3.1926840000000003,3.1926840000000007,3.1926840000000016,1.472877282518059e-15,5.921189464667501e-16,70.0,70.0,70.0,70.0,70.0,0.0,0.0,34.97000000000001,34.97,34.97000000000001,34.97000000000001,34.97000000000001,7.105427357601002e-15,4.736951571734001e-15,10.04,7.11,8.690000000000001,8.805,7.11,1.1017486101647687,-0.9766666666666662
1 -> 2,3.1926840000000016,3.192683999999998,3.1926840000000003,3.1926840000000007,3.1926840000000016,1.472877282518059e-15,5.921189464667501e-16,70.0,70.0,70.0,70.0,70.0,0.0,0.0,34.97000000000001,34.97,34.97000000000001,34.97000000000001,34.97000000000001,7.105427357601002e-15,4.736951571734001e-15,5.84,1.15,3.6225,3.75,1.15,1.7455711815907138,-1.5633333333333332
1 -> 2,3.1926840000000016,3.192683999999998,3.1926840000000003,3.1926840000000007,3.1926840000000016,1.472877282518059e-15,5.921189464667501e-16,70.0,70.0,70.0,70.0,70.0,0.0,0.0,34.97000000000001,34.97,34.97000000000001,34.97000000000001,34.97000000000001,7.105427357601002e-15,4.736951571734001e-15,5.84,1.15,3.6225,3.75,1.15,1.7455711815907138,-1.5633333333333332
1 -> 2,3.1926840000000016,3.192683999999998,3.1926840000000003,3.1926840000000007,3.1926840000000016,1.472877282518059e-15,5.921189464667501e-16,70.0,70.0,70.0,70.0,70.0,0.0,0.0,34.97000000000001,34.97,34.97000000000001,34.97000000000001,34.97000000000001,7.105427357601002e-15,4.736951571734001e-15,-1.22,-10.68,-5.865,-5.779999999999999,-10.68,3.54097091205223,-3.1533333333333338
1 -> 2,3.1926840000000016,3.192683999999998,3.1926840000000003,3.1926840000000007,3.1926840000000016,1.472877282518059e-15,5.921189464667501e-16,70.0,70.0,70.0,70.0,70.0,0.0,0.0,34.97000000000001,34.97,34.97000000000001,34.97000000000001,34.97000000000001,7.105427357601002e-15,4.736951571734001e-15,-1.22,-10.68,-5.865,-5.779999999999999,-10.68,3.54097091205223,-3.1533333333333338
1 -> 2,3.1926840000000016,3.192683999999998,3.1926840000000003,3.1926840000000007,3.1926840000000016,1.472877282518059e-15,5.921189464667501e-16,70.0,70.0,70.0,70.0,70.0,0.0,0.0,34.97000000000001,34.97,34.97000000000001,34.97000000000001,34.97000000000001,7.105427357601002e-15,4.736951571734001e-15,-13.35,-14.97,-14.1625,-14.165,-14.97,0.7781829797676125,-0.023333333333333428
1 -> 2,3.1926840000000016,3.192683999999998,3.1926840000000003,3.1926840000000007,3.1926840000000016,1.472877282518059e-15,5.921189464667501e-16,70.0,70.0,70.0,70.0,70.0,0.0,0.0,34.97000000000001,34.97,34.97000000000001,34.97000000000001,34.97000000000001,7.105427357601002e-15,4.736951571734001e-15,-13.35,-14.97,-14.1625,-14.165,-14.97,0.7781829797676125,-0.023333333333333428
1 -> 2,3.1914040000000017,3.191403999999999,3.1914040000000004,3.1914040000000004,3.191403999999999,1.3322676295501878e-15,0.0,70.0,70.0,70.0,70.0,70.0,0.0,0.0,34.97000000000001,34.97,34.97000000000001,34.97000000000001,34.97000000000001,7.105427357601002e-15,4.736951571734001e-15,2.18,-10.47,-4.2425,-4.34,-10.47,4.733959098893864,4.216666666666667
1 -> 2,3.1914040000000017,3.191403999999999,3.1914040000000004,3.1914040000000004,3.191403999999999,1.3322676295501878e-15,0.0,70.0,70.0,70.0,70.0,70.0,0.0,0.0,34.97000000000001,34.97,34.97000000000001,34.97000000000001,34.97000000000001,7.105427357601002e-15,4.736951571734001e-15,2.18,-10.47,-4.2425,-4.34,-10.47,4.733959098893864,4.216666666666667
1 -> 2,3.1914040000000017,3.191403999999999,3.1914040000000004,3.1914040000000004,3.191403999999999,1.3322676295501878e-15,0.0,70.0,70.0,70.0,70.0,70.0,0.0,0.0,34.97000000000001,34.97,34.97000000000001,34.97000000000001,34.97000000000001,7.105427357601002e-15,4.736951571734001e-15,12.84,6.06,9.9025,10.355,6.06,2.5702760065798382,2.2600000000000002
1 -> 2,3.1914040000000017,3.191403999999999,3.1914040000000004,3.1914040000000004,3.191403999999999,1.3322676295501878e-15,0.0,70.0,70.0,70.0,70.0,70.0,0.0,0.0,34.97000000000001,34.97,34.97000000000001,34.97000000000001,34.97000000000001,7.105427357601002e-15,4.736951571734001e-15,12.84,6.06,9.9025,10.355,6.06,2.5702760065798382,2.2600000000000002
1 -> 2,3.1914040000000017,3.191403999999999,3.1914040000000004,3.1914040000000004,3.191403999999999,1.3322676295501878e-15,0.0,70.0,70.0,70.0,70.0,70.0,0.0,0.0,34.97000000000001,34.97,34.97000000000001,34.97000000000001,34.97000000000001,7.105427357601002e-15,4.736951571734001e-15,13.3,11.47,12.5225,12.66,11.47,0.7087444885147254,-0.61
1 -> 2,3.1914040000000017,3.191403999999999,3.1914040000000004,3.1914040000000004,3.191403999999999,1.3322676295501878e-15,0.0,70.0,70.0,70.0,70.0,70.0,0.0,0.0,34.97000000000001,34.97,34.97000000000001,34.97000000000001,34.97000000000001,7.105427357601002e-15,4.736951571734001e-15,13.3,11.47,12.5225,12.66,11.47,0.7087444885147254,-0.61
1 -> 2,3.1914040000000017,3.191403999999999,3.1914040000000004,3.1914040000000004,3.191403999999999,1.3322676295501878e-15,0.0,70.0,70.0,70.0,70.0,70.0,0.0,0.0,34.97000000000001,34.97,34.97000000000001,34.97000000000001,34.97000000000001,7.105427357601002e-15,4.736951571734001e-15,10.81,10.21,10.455000000000002,10.4,10.21,0.22321514285549715,-0.19999999999999987
1 -> 2,3.1914040000000017,3.191403999999999,3.1914040000000004,3.1914040000000004,3.191403999999999,1.3322676295501878e-15,0.0,70.0,70.0,70.0,70.0,70.0,0.0,0.0,34.97000000000001,34.97,34.97000000000001,34.97000000000001,34.97000000000001,7.105427357601002e-15,4.736951571734001e-15,10.81,10.21,10.455000000000002,10.4,10.21,0.22321514285549715,-0.19999999999999987
1 -> 2,3.1875630000000017,3.1875629999999995,3.1875630000000004,3.187563000000001,3.1875629999999995,1.1322097734007351e-15,0.0,70.0,70.0,70.0,70.0,70.0,0.0,0.0,34.97000000000001,34.97,34.97000000000001,34.97000000000001,34.97000000000001,7.105427357601002e-15,4.736951571734001e-15,9.84,6.28,8.24,8.42,6.28,1.344916354276354,-1.1866666666666665
1 -> 2,3.1875630000000017,3.1875629999999995,3.1875630000000004,3.187563000000001,3.1875629999999995,1.1322097734007351e-15,0.0,70.0,70.0,70.0,70.0,70.0,0.0,0.0,34.97000000000001,34.97,34.97000000000001,34.97000000000001,34.97000000000001,7.105427357601002e-15,4.736951571734001e-15,9.84,6.28,8.24,8.42,6.28,1.344916354276354,-1.1866666666666665
1 -> 2,3.1875630000000017,3.1875629999999995,3.1875630000000004,3.187563000000001,3.1875629999999995,1.1322097734007351e-15,0.0,70.0,70.0,70.0,70.0,70.0,0.0,0.0,34.97000000000001,34.97,34.97000000000001,34.97000000000001,34.97000000000001,7.105427357601002e-15,4.736951571734001e-15,4.68,0.89,2.675,2.565,0.89,1.4152473282080413,-1.2633333333333332
1 -> 2,3.1875630000000017,3.1875629999999995,3.1875630000000004,3.187563000000001,3.1875629999999995,1.1322097734007351e-15,0.0,70.0,70.0,70.0,70.0,70.0,0.0,0.0,34.97000000000001,34.97,34.97000000000001,34.97000000000001,34.97000000000001,7.105427357601002e-15,4.736951571734001e-15,4.68,0.89,2.675,2.565,0.89,1.4152473282080413,-1.2633333333333332
1 -> 2,3.1875630000000017,3.1875629999999995,3.1875630000000004,3.187563000000001,3.1875629999999995,1.1322097734007351e-15,0.0,70.0,70.0,70.0,70.0,70.0,0.0,0.0,34.97000000000001,34.97,34.97000000000001,34.97000000000001,34.97000000000001,7.105427357601002e-15,4.736951571734001e-15,-0.07,-4.51,-2.085,-1.88,-4.51,1.662956704186853,-1.4799999999999998
1 -> 2,3.1875630000000017,3.1875629999999995,3.1875630000000004,3.187563000000001,3.1875629999999995,1.1322097734007351e-15,0.0,70.0,70.0,70.0,70.0,70.0,0.0,0.0,34.97000000000001,34.97,34.97000000000001,34.97000000000001,34.97000000000001,7.105427357601002e-15,4.736951571734001e-15,-0.07,-4.51,-2.085,-1.88,-4.51,1.662956704186853,-1.4799999999999998
1 -> 2,3.1875630000000017,3.1875629999999995,3.1875630000000004,3.187563000000001,3.1875629999999995,1.1322097734007351e-15,0.0,70.0,70.0,70.0,70.0,70.0,0.0,0.0,34.97000000000001,34.97,34.97000000000001,34.97000000000001,34.97000000000001,7.105427357601002e-15,4.736951571734001e-15,-6.88,-14.74,-10.842500000000001,-10.875,-14.74,2.9373489322857105,-2.62
1 -> 2,3.1875630000000017,3.1875629999999995,3.1875630000000004,3.187563000000001,3.1875629999999995,1.1322097734007351e-15,0.0,70.0,70.0,70.0,70.0,70.0,0.0,0.0,34.97000000000001,34.97,34.97000000000001,34.97000000000001,34.97000000000001,7.105427357601002e-15,4.736951571734001e-15,-6.88,-14.74,-10.842500000000001,-10.875,-14.74,2.9373489322857105,-2.62
1 -> 2,3.1837220000000017,3.1837219999999986,3.1837220000000004,3.1837220000000004,3.1837220000000017,1.456043846448818e-15,-1.4802973661668753e-16,74.67,74.67,74.67,74.67,74.67,0.0,0.0,34.97000000000001,34.97,34.97000000000001,34.97000000000001,34.97000000000001,7.105427357601002e-15,4.736951571734001e-15,-17.0,-23.92,-20.345000000000002,-20.23,-23.92,2.5719788101770984,-2.306666666666667
1 -> 2,3.1837220000000017,3.1837219999999986,3.1837220000000004,3.1837220000000004,3.1837220000000017,1.456043846448818e-15,-1.4802973661668753e-16,74.67,74.67,74.67,74.67,74.67,0.0,0.0,34.97000000000001,34.97,34.97000000000001,34.97000000000001,34.97000000000001,7.105427357601002e-15,4.736951571734001e-15,-17.0,-23.92,-20.345000000000002,-20.23,-23.92,2.5719788101770984,-2.306666666666667
1 -> 2,3.1837220000000017,3.1837219999999986,3.1837220000000004,3.1837220000000004,3.1837220000000017,1.456043846448818e-15,-1.4802973661668753e-16,74.67,74.67,74.67,74.67,74.67,0.0,0.0,34.97000000000001,34.97,34.97000000000001,34.97000000000001,34.97000000000001,7.105427357601002e-15,4.736951571734001e-15,-26.98,-36.52,-31.93,-32.11,-36.52,3.58286198450345,-3.180000000000001
1 -> 2,3.1837220000000017,3.1837219999999986,3.1837220000000004,3.1837220000000004,3.1837220000000017,1.456043846448818e-15,-1.4802973661668753e-16,74.67,74.67,74.67,74.67,74.67,0.0,0.0,34.97000000000001,34.97,34.97000000000001,34.97000000000001,34.97000000000001,7.105427357601002e-15,4.736951571734001e-15,-26.98,-36.52,-31.93,-32.11,-36.52,3.58286198450345,-3.180000000000001
1 -> 2,3.1837220000000017,3.1837219999999986,3.1837220000000004,3.1837220000000004,3.1837220000000017,1.456043846448818e-15,-1.4802973661668753e-16,74.67,74.67,74.67,74.67,74.67,0.0,0.0,34.97000000000001,34.97,34.97000000000001,34.97000000000001,34.97000000000001,7.105427357601002e-15,4.736951571734001e-15,-29.9,-37.9,-34.949999999999996,-36.0,-37.9,3.166591227171578,2.6666666666666665
1 -> 2,3.1837220000000017,3.1837219999999986,3.1837220000000004,3.1837220000000004,3.1837220000000017,1.456043846448818e-15,-1.4802973661668753e-16,74.67,74.67,74.67,74.67,74.67,0.0,0.0,34.97000000000001,34.97,34.97000000000001,34.97000000000001,34.97000000000001,7.105427357601002e-15,4.736951571734001e-15,-29.9,-37.9,-34.949999999999996,-36.0,-37.9,3.166591227171578,2.6666666666666665
1 -> 2,3.1837220000000017,3.1837219999999986,3.1837220000000004,3.1837220000000004,3.1837220000000017,1.456043846448818e-15,-1.4802973661668753e-16,74.67,74.67,74.67,74.67,74.67,0.0,0.0,34.97000000000001,34.97,34.97000000000001,34.97000000000001,34.97000000000001,7.105427357601002e-15,4.736951571734001e-15,-3.91,-23.66,-13.5425,-13.3,-23.66,7.391256236256459,6.583333333333333
1 -> 2,3.1837220000000017,3.1837219999999986,3.1837220000000004,3.1837220000000004,3.1837220000000017,1.456043846448818e-15,-1.4802973661668753e-16,74.67,74.67,74.67,74.67,74.67,0.0,0.0,34.97000000000001,34.97,34.97000000000001,34.97000000000001,34.97000000000001,7.105427357601002e-15,4.736951571734001e-15,-3.91,-23.66,-13.5425,-13.3,-23.66,7.391256236256459,6.583333333333333
1 -> 2,3.1862820000000016,3.186281999999999,3.1862820000000007,3.186282000000001,3.1862820000000016,1.0877919644084146e-15,5.921189464667501e-16,74.67,74.67,74.67,74.67,74.67,0.0,0.0,34.97000000000001,34.97,34.97000000000001,34.97000000000001,34.97000000000001,7.105427357601002e-15,4.736951571734001e-15,7.34,0.84,4.67,5.25,0.84,2.4837270381424768,2.1666666666666665
1 -> 2,3.1862820000000016,3.186281999999999,3.1862820000000007,3.186282000000001,3.1862820000000016,1.0877919644084146e-15,5.921189464667501e-16,74.67,74.67,74.67,74.67,74.67,0.0,0.0,34.97000000000001,34.97,34.97000000000001,34.97000000000001,34.97000000000001,7.105427357601002e-15,4.736951571734001e-15,7.34,0.84,4.67,5.25,0.84,2.4837270381424768,2.1666666666666665
1 -> 2,3.1862820000000016,3.186281999999999,3.1862820000000007,3.186282000000001,3.1862820000000016,1.0877919644084146e-15,5.921189464667501e-16,74.67,74.67,74.67,74.67,74.67,0.0,0.0,34.97000000000001,34.97,34.97000000000001,34.97000000000001,34.97000000000001,7.105427357601002e-15,4.736951571734001e-15,7.57,5.36,6.635,6.805,5.36,0.8470094450476925,-0.7366666666666667
1 -> 2,3.1862820000000016,3.186281999999999,3.1862820000000007,3.186282000000001,3.1862820000000016,1.0877919644084146e-15,5.921189464667501e-16,74.67,74.67,74.67,74.67,74.67,0.0,0.0,34.97000000000001,34.97,34.97000000000001,34.97000000000001,34.97000000000001,7.105427357601002e-15,4.736951571734001e-15,7.57,5.36,6.635,6.805,5.36,0.8470094450476925,-0.7366666666666667
1 -> 2,3.1862820000000016,3.186281999999999,3.1862820000000007,3.186282000000001,3.1862820000000016,1.0877919644084146e-15,5.921189464667501e-16,74.67,74.67,74.67,74.67,74.67,0.0,0.0,34.97000000000001,34.97,34.97000000000001,34.97000000000001,34.97000000000001,7.105427357601002e-15,4.736951571734001e-15,4.21,1.43,2.7225,2.625,1.43,1.0432491313200314,-0.9266666666666667
1 -> 2,3.1862820000000016,3.186281999999999,3.1862820000000007,3.186282000000001,3.1862820000000016,1.0877919644084146e-15,5.921189464667501e-16,74.67,74.67,74.67,74.67,74.67,0.0,0.0,34.97000000000001,34.97,34.97000000000001,34.97000000000001,34.97000000000001,7.105427357601002e-15,4.736951571734001e-15,4.21,1.43,2.7225,2.625,1.43,1.0432491313200314,-0.9266666666666667
1 -> 2,3.1862820000000016,3.186281999999999,3.1862820000000007,3.186282000000001,3.1862820000000016,1.0877919644084146e-15,5.921189464667501e-16,74.67,74.67,74.67,74.67,74.67,0.0,0.0,34.97000000000001,34.97,34.97000000000001,34.97000000000001,34.97000000000001,7.105427357601002e-15,4.736951571734001e-15,0.92,-0.1,0.4125,0.415,-0.1,0.3769200843680262,-0.34
1 -> 2,3.1862820000000016,3.186281999999999,3.1862820000000007,3.186282000000001,3.1862820000000016,1.0877919644084146e-15,5.921189464667501e-16,74.67,74.67,74.67,74.67,74.67,0.0,0.0,34.97000000000001,34.97,34.97000000000001,34.97000000000001,34.97000000000001,7.105427357601002e-15,4.736951571734001e-15,0.92,-0.1,0.4125,0.415,-0.1,0.3769200843680262,-0.34
1 -> 2,3.1824410000000016,3.182440999999999,3.1824410000000007,3.1824410000000007,3.1824410000000016,1.1102230246251565e-15,4.440892098500626e-16,74.67,74.67,74.67,74.67,74.67,0.0,0.0,34.97000000000001,34.97,34.97000000000001,34.97000000000001,34.97000000000001,7.105427357601002e-15,4.736951571734001e-15,-0.58,-2.7,-1.585,-1.5299999999999998,-2.7,0.7912490126376146,-0.7066666666666667
1 -> 2,3.1824410000000016,3.182440999999999,3.1824410000000007,3.1824410000000007,3.1824410000000016,1.1102230246251565e-15,4.440892098500626e-16,74.67,74.67,74.67,74.67,74.67,0.0,0.0,34.97000000000001,34.97,34.97000000000001,34.97000000000001,34.97000000000001,7.105427357601002e-15,4.736951571734001e-15,-0.58,-2.7,-1.585,-1.5299999999999998,-2.7,0.7912490126376146,-0.7066666666666667
1 -> 2,3.1824410000000016,3.182440999999999,3.1824410000000007,3.1824410000000007,3.1824410000000016,1.1102230246251565e-15,4.440892098500626e-16,74.67,74.67,74.67,74.67,74.67,0.0,0.0,34.97000000000001,34.97,34.97000000000001,34.97000000000001,34.97000000000001,7.105427357601002e-15,4.736951571734001e-15,-3.68,-8.32,-5.8425,-5.6850000000000005,-8.32,1.736755236065232,-1.5466666666666669
1 -> 2,3.1824410000000016,3.182440999999999,3.1824410000000007,3.1824410000000007,3.1824410000000016,1.1102230246251565e-15,4.440892098500626e-16,74.67,74.67,74.67,74.67,74.67,0.0,0.0,34.97000000000001,34.97,34.97000000000001,34.97000000000001,34.97000000000001,7.105427357601002e-15,4.736951571734001e-15,-3.68,-8.32,-5.8425,-5.6850000000000005,-8.32,1.736755236065232,-1.5466666666666669
1 -> 2,3.1824410000000016,3.182440999999999,3.1824410000000007,3.1824410000000007,3.1824410000000016,1.1102230246251565e-15,4.440892098500626e-16,74.67,74.67,74.67,74.67,74.67,0.0,0.0,34.97000000000001,34.97,34.97000000000001,34.97000000000001,34.97000000000001,7.105427357601002e-15,4.736951571734001e-15,-10.37,-16.48,-13.455000000000002,-13.485,-16.48,2.276515978419656,-2.036666666666667
1 -> 2,3.1824410000000016,3.182440999999999,3.1824410000000007,3.1824410000000007,3.1824410000000016,1.1102230246251565e-15,4.440892098500626e-16,74.67,74.67,74.67,74.67,74.67,0.0,0.0,34.97000000000001,34.97,34.97000000000001,34.97000000000001,34.97000000000001,7.105427357601002e-15,4.736951571734001e-15,-10.37,-16.48,-13.455000000000002,-13.485,-16.48,2.276515978419656,-2.036666666666667
1 -> 2,3.1824410000000016,3.182440999999999,3.1824410000000007,3.1824410000000007,3.1824410000000016,1.1102230246251565e-15,4.440892098500626e-16,74.67,74.67,74.67,74.67,74.67,0.0,0.0,34.97000000000001,34.97,34.97000000000001,34.97000000000001,34.97000000000001,7.105427357601002e-15,4.736951571734001e-15,-18.58,-27.07,-22.6475,-22.47,-27.07,3.176911825971883,-2.8300000000000005
1 -> 2,3.1824410000000016,3.182440999999999,3.1824410000000007,3.1824410000000007,3.1824410000000016,1.1102230246251565e-15,4.440892098500626e-16,74.67,74.67,74.67,74.67,74.67,0.0,0.0,34.97000000000001,34.97,34.97000000000001,34.97000000000001,34.97000000000001,7.105427357601002e-15,4.736951571734001e-15,-18.58,-27.07,-22.6475,-22.47,-27.07,3.176911825971883,-2.8300000000000005
1 -> 2,3.1824410000000016,3.182440999999999,3.1824410000000007,3.1824410000000007,3.1824410000000016,1.1102230246251565e-15,4.440892098500626e-16,74.67,74.67,74.67,74.67,74.67,0.0,0.0,34.97000000000001,34.97,34.97000000000001,34.97000000000001,34.97000000000001,7.105427357601002e-15,4.736951571734001e-15,-29.81,-31.93,-30.880000000000003,-30.89,-31.93,0.9971709983749028,0.05000000000000071
1 -> 2,3.1824410000000016,3.182440999999999,3.1824410000000007,3.1824410000000007,3.1824410000000016,1.1102230246251565e-15,4.440892098500626e-16,74.67,74.67,74.67,74.67,74.67,0.0,0.0,34.97000000000001,34.97,34.97000000000001,34.97000000000001,34.97000000000001,7.105427357601002e-15,4.736951571734001e-15,-29.81,-31.93,-30.880000000000003,-30.89,-31.93,0.9971709983749028,0.05000000000000071
1 -> 2,3.1824410000000016,3.182440999999999,3.1824410000000007,3.1824410000000007,3.1824410000000016,1.1102230246251565e-15,4.440892098500626e-16,74.67,74.67,74.67,74.67,74.67,0.0,0.0,34.97000000000001,34.97,34.97000000000001,34.97000000000001,34.97000000000001,7.105427357601002e-15,4.736951571734001e-15,-5.77,-25.48,-15.817499999999999,-16.009999999999998,-25.48,7.38338464052903,6.57
1 -> 2,3.1824410000000016,3.182440999999999,3.1824410000000007,3.1824410000000007,3.1824410000000016,1.1102230246251565e-15,4.440892098500626e-16,74.67,74.67,74.67,74.67,74.67,0.0,0.0,34.97000000000001,34.97,34.97000000000001,34.97000000000001,34.97000000000001,7.105427357601002e-15,4.736951571734001e-15,-5.77,-25.48,-15.817499999999999,-16.009999999999998,-25.48,7.38338464052903,6.57
1 -> 2,3.1824410000000016,3.182440999999999,3.1824410000000007,3.1824410000000007,3.1824410000000016,1.1102230246251565e-15,4.440892098500626e-16,74.67,74.67,74.67,74.67,74.67,0.0,0.0,34.97000000000001,34.97,34.97000000000001,34.97000000000001,34.97000000000001,7.105427357601002e-15,4.736951571734001e-15,10.77,0.22,6.1125,6.73,0.22,3.97373486156286,3.516666666666667
1 -> 2,3.1824410000000016,3.182440999999999,3.1824410000000007,3.1824410000000007,3.1824410000000016,1.1102230246251565e-15,4.440892098500626e-16,74.67,74.67,74.67,74.67,74.67,0.0,0.0,34.97000000000001,34.97,34.97000000000001,34.97000000000001,34.97000000000001,7.105427357601002e-15,4.736951571734001e-15,10.77,0.22,6.1125,6.73,0.22,3.97373486156286,3.516666666666667
1 -> 2,3.1824410000000016,3.182440999999999,3.1824410000000007,3.1824410000000007,3.1824410000000016,1.1102230246251565e-15,4.440892098500626e-16,74.67,74.67,74.67,74.67,74.67,0.0,0.0,34.97000000000001,34.97,34.97000000000001,34.97000000000001,34.97000000000001,7.105427357601002e-15,4.736951571734001e-15,12.81,12.15,12.505,12.53,12.15,0.2938111638450792,0.043333333333333
1 -> 2,3.1824410000000016,3.182440999999999,3.1824410000000007,3.1824410000000007,3.1824410000000016,1.1102230246251565e-15,4.440892098500626e-16,74.67,74.67,74.67,74.67,74.67,0.0,0.0,34.97000000000001,34.97,34.97000000000001,34.97000000000001,34.97000000000001,7.105427357601002e-15,4.736951571734001e-15,12.81,12.15,12.505,12.53,12.15,0.2938111638450792,0.043333333333333
1 -> 2,3.1978050000000016,3.197804999999999,3.1978050000000002,3.1978050000000007,3.1978050000000016,1.2362920382602608e-15,1.4802973661668753e-16,78.0,78.0,78.0,78.0,78.0,0.0,0.0,34.95000000000002,34.949999999999996,34.95,34.95000000000001,34.95000000000002,1.0658141036401503e-14,2.3684757858670005e-15,11.28,6.82,9.1075,9.165,6.82,1.6703498884964187,-1.4866666666666664
1 -> 2,3.1978050000000016,3.197804999999999,3.1978050000000002,3.1978050000000007,3.1978050000000016,1.2362920382602608e-15,1.4802973661668753e-16,78.0,78.0,78.0,78.0,78.0,0.0,0.0,34.95000000000002,34.949999999999996,34.95,34.95000000000001,34.95000000000002,1.0658141036401503e-14,2.3684757858670005e-15,11.28,6.82,9.1075,9.165,6.82,1.6703498884964187,-1.4866666666666664
1 -> 2,3.1978050000000016,3.197804999999999,3.1978050000000002,3.1978050000000007,3.1978050000000016,1.2362920382602608e-15,1.4802973661668753e-16,78.0,78.0,78.0,78.0,78.0,0.0,0.0,34.95000000000002,34.949999999999996,34.95,34.95000000000001,34.95000000000002,1.0658141036401503e-14,2.3684757858670005e-15,5.35,1.65,3.4575,3.415,1.65,1.3769781225567819,-1.2333333333333332
1 -> 2,3.1978050000000016,3.197804999999999,3.1978050000000002,3.1978050000000007,3.1978050000000016,1.2362920382602608e-15,1.4802973661668753e-16,78.0,78.0,78.0,78.0,78.0,0.0,0.0,34.95000000000002,34.949999999999996,34.95,34.95000000000001,34.95000000000002,1.0658141036401503e-14,2.3684757858670005e-15,5.35,1.65,3.4575,3.415,1.65,1.3769781225567819,-1.2333333333333332
1 -> 2,3.1978050000000016,3.197804999999999,3.1978050000000002,3.1978050000000007,3.1978050000000016,1.2362920382602608e-15,1.4802973661668753e-16,78.0,78.0,78.0,78.0,78.0,0.0,0.0,34.95000000000002,34.949999999999996,34.95,34.95000000000001,34.95000000000002,1.0658141036401503e-14,2.3684757858670005e-15,0.42,-4.02,-1.74,-1.6800000000000002,-4.02,1.6580259346584418,-1.4799999999999998
1 -> 2,3.1978050000000016,3.197804999999999,3.1978050000000002,3.1978050000000007,3.1978050000000016,1.2362920382602608e-15,1.4802973661668753e-16,78.0,78.0,78.0,78.0,78.0,0.0,0.0,34.95000000000002,34.949999999999996,34.95,34.95000000000001,34.95000000000002,1.0658141036401503e-14,2.3684757858670005e-15,0.42,-4.02,-1.74,-1.6800000000000002,-4.02,1.6580259346584418,-1.4799999999999998
1 -> 2,3.1978050000000016,3.197804999999999,3.1978050000000002,3.1978050000000007,3.1978050000000016,1.2362920382602608e-15,1.4802973661668753e-16,78.0,78.0,78.0,78.0,78.0,0.0,0.0,34.95000000000002,34.949999999999996,34.95,34.95000000000001,34.95000000000002,1.0658141036401503e-14,2.3684757858670005e-15,-5.61,-9.34,-7.5725,-7.67,-9.34,1.393132710835547,-1.2433333333333332
1 -> 2,3.1978050000000016,3.197804999999999,3.1978050000000002,3.1978050000000007,3.1978050000000016,1.2362920382602608e-15,1.4802973661668753e-16,78.0,78.0,78.0,78.0,78.0,0.0,0.0,34.95000000000002,34.949999999999996,34.95,34.95000000000001,34.95000000000002,1.0658141036401503e-14,2.3684757858670005e-15,-5.61,-9.34,-7.5725,-7.67,-9.34,1.393132710835547,-1.2433333333333332
1 -> 2,3.2144500000000016,3.21445,3.2144500000000007,3.2144500000000007,3.21445,8.881784197001252e-16,0.0,78.0,78.0,78.0,78.0,78.0,0.0,0.0,34.95000000000002,34.949999999999996,34.95,34.95000000000001,34.95000000000002,1.0658141036401503e-14,2.3684757858670005e-15,-10.34,-14.99,-12.4475,-12.23,-14.99,1.7410826373265573,-1.55
1 -> 2,3.2144500000000016,3.21445,3.2144500000000007,3.2144500000000007,3.21445,8.881784197001252e-16,0.0,78.0,78.0,78.0,78.0,78.0,0.0,0.0,34.95000000000002,34.949999999999996,34.95,34.95000000000001,34.95000000000002,1.0658141036401503e-14,2.3684757858670005e-15,-10.34,-14.99,-12.4475,-12.23,-14.99,1.7410826373265573,-1.55
1 -> 2,3.2144500000000016,3.21445,3.2144500000000007,3.2144500000000007,3.21445,8.881784197001252e-16,0.0,78.0,78.0,78.0,78.0,78.0,0.0,0.0,34.95000000000002,34.949999999999996,34.95,34.95000000000001,34.95000000000002,1.0658141036401503e-14,2.3684757858670005e-15,-17.58,-28.26,-22.735000000000003,-22.55,-28.26,3.993522880865967,-3.560000000000001
1 -> 2,3.2144500000000016,3.21445,3.2144500000000007,3.2144500000000007,3.21445,8.881784197001252e-16,0.0,78.0,78.0,78.0,78.0,78.0,0.0,0.0,34.95000000000002,34.949999999999996,34.95,34.95000000000001,34.95000000000002,1.0658141036401503e-14,2.3684757858670005e-15,-17.58,-28.26,-22.735000000000003,-22.55,-28.26,3.993522880865967,-3.560000000000001
1 -> 2,3.2144500000000016,3.21445,3.2144500000000007,3.2144500000000007,3.21445,8.881784197001252e-16,0.0,78.0,78.0,78.0,78.0,78.0,0.0,0.0,34.95000000000002,34.949999999999996,34.95,34.95000000000001,34.95000000000002,1.0658141036401503e-14,2.3684757858670005e-15,-31.99,-36.42,-34.7975,-35.39,-36.42,1.7032230476364518,-1.28
1 -> 2,3.2144500000000016,3.21445,3.2144500000000007,3.2144500000000007,3.21445,8.881784197001252e-16,0.0,78.0,78.0,78.0,78.0,78.0,0.0,0.0,34.95000000000002,34.949999999999996,34.95,34.95000000000001,34.95000000000002,1.0658141036401503e-14,2.3684757858670005e-15,-31.99,-36.42,-34.7975,-35.39,-36.42,1.7032230476364518,-1.28
1 -> 2,3.2144500000000016,3.21445,3.2144500000000007,3.2144500000000007,3.21445,8.881784197001252e-16,0.0,78.0,78.0,78.0,78.0,78.0,0.0,0.0,34.95000000000002,34.949999999999996,34.95,34.95000000000001,34.95000000000002,1.0658141036401503e-14,2.3684757858670005e-15,-15.38,-32.95,-24.57,-24.975,-32.95,6.596267884190272,5.8566666666666665
1 -> 2,3.2144500000000016,3.21445,3.2144500000000007,3.2144500000000007,3.21445,8.881784197001252e-16,0.0,78.0,78.0,78.0,78.0,78.0,0.0,0.0,34.95000000000002,34.949999999999996,34.95,34.95000000000001,34.95000000000002,1.0658141036401503e-14,2.3684757858670005e-15,-15.38,-32.95,-24.57,-24.975,-32.95,6.596267884190272,5.8566666666666665
1 -> 2,3.2080480000000016,3.208047999999999,3.2080480000000002,3.2080480000000007,3.2080480000000016,1.2362920382602608e-15,1.4802973661668753e-16,78.0,78.0,78.0,78.0,78.0,0.0,0.0,34.95000000000002,34.949999999999996,34.95,34.95000000000001,34.95000000000002,1.0658141036401503e-14,2.3684757858670005e-15,2.43,-9.34,-2.9025000000000003,-2.35,-9.34,4.418497340725691,3.9233333333333333
1 -> 2,3.2080480000000016,3.208047999999999,3.2080480000000002,3.2080480000000007,3.2080480000000016,1.2362920382602608e-15,1.4802973661668753e-16,78.0,78.0,78.0,78.0,78.0,0.0,0.0,34.95000000000002,34.949999999999996,34.95,34.95000000000001,34.95000000000002,1.0658141036401503e-14,2.3684757858670005e-15,2.43,-9.34,-2.9025000000000003,-2.35,-9.34,4.418497340725691,3.9233333333333333
1 -> 2,3.2080480000000016,3.208047999999999,3.2080480000000002,3.2080480000000007,3.2080480000000016,1.2362920382602608e-15,1.4802973661668753e-16,78.0,78.0,78.0,78.0,78.0,0.0,0.0,34.95000000000002,34.949999999999996,34.95,34.95000000000001,34.95000000000002,1.0658141036401503e-14,2.3684757858670005e-15,5.39,4.29,4.9525,5.0649999999999995,4.29,0.42546298311368985,0.19666666666666663
1 -> 2,3.2080480000000016,3.208047999999999,3.2080480000000002,3.2080480000000007,3.2080480000000016,1.2362920382602608e-15,1.4802973661668753e-16,78.0,78.0,78.0,78.0,78.0,0.0,0.0,34.95000000000002,34.949999999999996,34.95,34.95000000000001,34.95000000000002,1.0658141036401503e-14,2.3684757858670005e-15,5.39,4.29,4.9525,5.0649999999999995,4.29,0.42546298311368985,0.19666666666666663
1 -> 2,3.2080480000000016,3.208047999999999,3.2080480000000002,3.2080480000000007,3.2080480000000016,1.2362920382602608e-15,1.4802973661668753e-16,78.0,78.0,78.0,78.0,78.0,0.0,0.0,34.95000000000002,34.949999999999996,34.95,34.95000000000001,34.95000000000002,1.0658141036401503e-14,2.3684757858670005e-15,4.32,3.48,3.845,3.79,3.48,0.36908671067921156,0.07666666666666681
1 -> 2,3.2080480000000016,3.208047999999999,3.2080480000000002,3.2080480000000007,3.2080480000000016,1.2362920382602608e-15,1.4802973661668753e-16,78.0,78.0,78.0,78.0,78.0,0.0,0.0,34.95000000000002,34.949999999999996,34.95,34.95000000000001,34.95000000000002,1.0658141036401503e-14,2.3684757858670005e-15,4.32,3.48,3.845,3.79,3.48,0.36908671067921156,0.07666666666666681
1 -> 2,3.2080480000000016,3.208047999999999,3.2080480000000002,3.2080480000000007,3.2080480000000016,1.2362920382602608e-15,1.4802973661668753e-16,78.0,78.0,78.0,78.0,78.0,0.0,0.0,34.95000000000002,34.949999999999996,34.95,34.95000000000001,34.95000000000002,1.0658141036401503e-14,2.3684757858670005e-15,10.59,5.85,8.39,8.56,5.85,1.7884630272946658,1.58
1 -> 2,3.2080480000000016,3.208047999999999,3.2080480000000002,3.2080480000000007,3.2080480000000016,1.2362920382602608e-15,1.4802973661668753e-16,78.0,78.0,78.0,78.0,78.0,0.0,0.0,34.95000000000002,34.949999999999996,34.95,34.95000000000001,34.95000000000002,1.0658141036401503e-14,2.3684757858670005e-15,10.59,5.85,8.39,8.56,5.85,1.7884630272946658,1.58
1 -> 2,3.2106090000000016,3.2106089999999994,3.2106090000000007,3.2106090000000007,3.2106090000000016,9.42055475210265e-16,2.9605947323337506e-16,78.0,78.0,78.0,78.0,78.0,0.0,0.0,34.95000000000002,34.949999999999996,34.95,34.95000000000001,34.95000000000002,1.0658141036401503e-14,2.3684757858670005e-15,11.08,9.72,10.535,10.67,9.72,0.5346727971385861,-0.45333333333333314
1 -> 2,3.2106090000000016,3.2106089999999994,3.2106090000000007,3.2106090000000007,3.2106090000000016,9.42055475210265e-16,2.9605947323337506e-16,78.0,78.0,78.0,78.0,78.0,0.0,0.0,34.95000000000002,34.949999999999996,34.95,34.95000000000001,34.95000000000002,1.0658141036401503e-14,2.3684757858670005e-15,11.08,9.72,10.535,10.67,9.72,0.5346727971385861,-0.45333333333333314
1 -> 2,3.2106090000000016,3.2106089999999994,3.2106090000000007,3.2106090000000007,3.2106090000000016,9.42055475210265e-16,2.9605947323337506e-16,78.0,78.0,78.0,78.0,78.0,0.0,0.0,34.95000000000002,34.949999999999996,34.95,34.95000000000001,34.95000000000002,1.0658141036401503e-14,2.3684757858670005e-15,9.11,7.22,8.2675,8.370000000000001,7.22,0.7005845773352423,-0.6299999999999999
1 -> 2,3.2106090000000016,3.2106089999999994,3.2106090000000007,3.2106090000000007,3.2106090000000016,9.42055475210265e-16,2.9605947323337506e-16,78.0,78.0,78.0,78.0,78.0,0.0,0.0,34.95000000000002,34.949999999999996,34.95,34.95000000000001,34.95000000000002,1.0658141036401503e-14,2.3684757858670005e-15,9.11,7.22,8.2675,8.370000000000001,7.22,0.7005845773352423,-0.6299999999999999
1 -> 2,3.2106090000000016,3.2106089999999994,3.2106090000000007,3.2106090000000007,3.2106090000000016,9.42055475210265e-16,2.9605947323337506e-16,78.0,78.0,78.0,78.0,78.0,0.0,0.0,34.95000000000002,34.949999999999996,34.95,34.95000000000001,34.95000000000002,1.0658141036401503e-14,2.3684757858670005e-15,5.57,-5.47,0.5274999999999999,1.005,-5.47,4.149821532307143,-3.6799999999999997
1 -> 2,3.2106090000000016,3.2106089999999994,3.2106090000000007,3.2106090000000007,3.2106090000000016,9.42055475210265e-16,2.9605947323337506e-16,78.0,78.0,78.0,78.0,78.0,0.0,0.0,34.95000000000002,34.949999999999996,34.95,34.95000000000001,34.95000000000002,1.0658141036401503e-14,2.3684757858670005e-15,5.57,-5.47,0.5274999999999999,1.005,-5.47,4.149821532307143,-3.6799999999999997
1 -> 2,3.2106090000000016,3.2106089999999994,3.2106090000000007,3.2106090000000007,3.2106090000000016,9.42055475210265e-16,2.9605947323337506e-16,78.0,78.0,78.0,78.0,78.0,0.0,0.0,34.95000000000002,34.949999999999996,34.95,34.95000000000001,34.95000000000002,1.0658141036401503e-14,2.3684757858670005e-15,-10.5,-23.89,-17.5025,-17.810000000000002,-23.89,5.0127955025115485,-4.463333333333334
1 -> 2,3.2106090000000016,3.2106089999999994,3.2106090000000007,3.2106090000000007,3.2106090000000016,9.42055475210265e-16,2.9605947323337506e-16,78.0,78.0,78.0,78.0,78.0,0.0,0.0,34.95000000000002,34.949999999999996,34.95,34.95000000000001,34.95000000000002,1.0658141036401503e-14,2.3684757858670005e-15,-10.5,-23.89,-17.5025,-17.810000000000002,-23.89,5.0127955025115485,-4.463333333333334
1 -> 2,3.2029270000000016,3.2029269999999985,3.202927,3.2029270000000007,3.2029270000000016,1.4217791915866692e-15,4.440892098500626e-16,80.25,80.25,80.25,80.25,80.25,0.0,0.0,34.95000000000002,34.949999999999996,34.95,34.95000000000001,34.95000000000002,1.0658141036401503e-14,2.3684757858670005e-15,-26.61,-28.23,-27.535,-27.65,-28.23,0.6553434214211664,-0.206666666666667
1 -> 2,3.2029270000000016,3.2029269999999985,3.202927,3.2029270000000007,3.2029270000000016,1.4217791915866692e-15,4.440892098500626e-16,80.25,80.25,80.25,80.25,80.25,0.0,0.0,34.95000000000002,34.949999999999996,34.95,34.95000000000001,34.95000000000002,1.0658141036401503e-14,2.3684757858670005e-15,-26.61,-28.23,-27.535,-27.65,-28.23,0.6553434214211664,-0.206666666666667
1 -> 2,3.2029270000000016,3.2029269999999985,3.202927,3.2029270000000007,3.2029270000000016,1.4217791915866692e-15,4.440892098500626e-16,80.25,80.25,80.25,80.25,80.25,0.0,0.0,34.95000000000002,34.949999999999996,34.95,34.95000000000001,34.95000000000002,1.0658141036401503e-14,2.3684757858670005e-15,-16.72,-25.33,-21.2125,-21.4,-25.33,3.2153489312981254,2.8699999999999997
1 -> 2,3.2029270000000016,3.2029269999999985,3.202927,3.2029270000000007,3.2029270000000016,1.4217791915866692e-15,4.440892098500626e-16,80.25,80.25,80.25,80.25,80.25,0.0,0.0,34.95000000000002,34.949999999999996,34.95,34.95000000000001,34.95000000000002,1.0658141036401503e-14,2.3684757858670005e-15,-16.72,-25.33,-21.2125,-21.4,-25.33,3.2153489312981254,2.8699999999999997
1 -> 2,3.2029270000000016,3.2029269999999985,3.202927,3.2029270000000007,3.2029270000000016,1.4217791915866692e-15,4.440892098500626e-16,80.25,80.25,80.25,80.25,80.25,0.0,0.0,34.95000000000002,34.949999999999996,34.95,34.95000000000001,34.95000000000002,1.0658141036401503e-14,2.3684757858670005e-15,-0.55,-13.03,-6.7475000000000005,-6.705,-13.03,4.6728919043778445,4.16
1 -> 2,3.2029270000000016,3.2029269999999985,3.202927,3.2029270000000007,3.2029270000000016,1.4217791915866692e-15,4.440892098500626e-16,80.25,80.25,80.25,80.25,80.25,0.0,0.0,34.95000000000002,34.949999999999996,34.95,34.95000000000001,34.95000000000002,1.0658141036401503e-14,2.3684757858670005e-15,-0.55,-13.03,-6.7475000000000005,-6.705,-13.03,4.6728919043778445,4.16
1 -> 2,3.2029270000000016,3.2029269999999985,3.202927,3.2029270000000007,3.2029270000000016,1.4217791915866692e-15,4.440892098500626e-16,80.25,80.25,80.25,80.25,80.25,0.0,0.0,34.95000000000002,34.949999999999996,34.95,34.95000000000001,34.95000000000002,1.0658141036401503e-14,2.3684757858670005e-15,3.62,1.39,2.63,2.755,1.39,0.8504998530276182,-0.31666666666666665
1 -> 2,3.2029270000000016,3.2029269999999985,3.202927,3.2029270000000007,3.2029270000000016,1.4217791915866692e-15,4.440892098500626e-16,80.25,80.25,80.25,80.25,80.25,0.0,0.0,34.95000000000002,34.949999999999996,34.95,34.95000000000001,34.95000000000002,1.0658141036401503e-14,2.3684757858670005e-15,3.62,1.39,2.63,2.755,1.39,0.8504998530276182,-0.31666666666666665
1 -> 2,3.209328000000002,3.209328,3.2093280000000015,3.209328000000001,3.209328000000002,8.599750569898517e-16,1.4802973661668753e-16,80.25,80.25,80.25,80.25,80.25,0.0,0.0,34.95000000000002,34.949999999999996,34.95,34.95000000000001,34.95000000000002,1.0658141036401503e-14,2.3684757858670005e-15,-1.0,-5.97,-3.7725,-4.0600000000000005,-5.97,1.8725567414633928,-1.6566666666666665
1 -> 2,3.209328000000002,3.209328,3.2093280000000015,3.209328000000001,3.209328000000002,8.599750569898517e-16,1.4802973661668753e-16,80.25,80.25,80.25,80.25,80.25,0.0,0.0,34.95000000000002,34.949999999999996,34.95,34.95000000000001,34.95000000000002,1.0658141036401503e-14,2.3684757858670005e-15,-1.0,-5.97,-3.7725,-4.0600000000000005,-5.97,1.8725567414633928,-1.6566666666666665
1 -> 2,3.209328000000002,3.209328,3.2093280000000015,3.209328000000001,3.209328000000002,8.599750569898517e-16,1.4802973661668753e-16,80.25,80.25,80.25,80.25,80.25,0.0,0.0,34.95000000000002,34.949999999999996,34.95,34.95000000000001,34.95000000000002,1.0658141036401503e-14,2.3684757858670005e-15,-6.97,-14.61,-10.2875,-9.785,-14.61,2.891629082368622,-2.5466666666666664
1 -> 2,3.209328000000002,3.209328,3.2093280000000015,3.209328000000001,3.209328000000002,8.599750569898517e-16,1.4802973661668753e-16,80.25,80.25,80.25,80.25,80.25,0.0,0.0,34.95000000000002,34.949999999999996,34.95,34.95000000000001,34.95000000000002,1.0658141036401503e-14,2.3684757858670005e-15,-6.97,-14.61,-10.2875,-9.785,-14.61,2.891629082368622,-2.5466666666666664
1 -> 2,3.209328000000002,3.209328,3.2093280000000015,3.209328000000001,3.209328000000002,8.599750569898517e-16,1.4802973661668753e-16,80.25,80.25,80.25,80.25,80.25,0.0,0.0,34.95000000000002,34.949999999999996,34.95,34.95000000000001,34.95000000000002,1.0658141036401503e-14,2.3684757858670005e-15,-18.6,-23.96,-22.067500000000003,-22.854999999999997,-23.96,2.127761441045494,-1.6833333333333325
1 -> 2,3.209328000000002,3.209328,3.2093280000000015,3.209328000000001,3.209328000000002,8.599750569898517e-16,1.4802973661668753e-16,80.25,80.25,80.25,80.25,80.25,0.0,0.0,34.95000000000002,34.949999999999996,34.95,34.95000000000001,34.95000000000002,1.0658141036401503e-14,2.3684757858670005e-15,-18.6,-23.96,-22.067500000000003,-22.854999999999997,-23.96,2.127761441045494,-1.6833333333333325
1 -> 2,3.209328000000002,3.209328,3.2093280000000015,3.209328000000001,3.209328000000002,8.599750569898517e-16,1.4802973661668753e-16,80.25,80.25,80.25,80.25,80.25,0.0,0.0,34.95000000000002,34.949999999999996,34.95,34.95000000000001,34.95000000000002,1.0658141036401503e-14,2.3684757858670005e-15,-9.01,-21.12,-14.9425,-14.82,-21.12,4.564314707598503,4.036666666666667
1 -> 2,3.209328000000002,3.209328,3.2093280000000015,3.209328000000001,3.209328000000002,8.599750569898517e-16,1.4802973661668753e-16,80.25,80.25,80.25,80.25,80.25,0.0,0.0,34.95000000000002,34.949999999999996,34.95,34.95000000000001,34.95000000000002,1.0658141036401503e-14,2.3684757858670005e-15,-9.01,-21.12,-14.9425,-14.82,-21.12,4.564314707598503,4.036666666666667
1 -> 2,3.220851000000002,3.2208509999999997,3.2208510000000006,3.220851000000001,3.220851000000002,1.0648885158809838e-15,1.4802973661668753e-16,80.25,80.25,80.25,80.25,80.25,0.0,0.0,34.95000000000002,34.949999999999996,34.95,34.95000000000001,34.95000000000002,1.0658141036401503e-14,2.3684757858670005e-15,-7.26,-14.77,-10.0625,-9.11,-14.77,2.9757467550179735,-2.5033333333333334
1 -> 2,3.220851000000002,3.2208509999999997,3.2208510000000006,3.220851000000001,3.220851000000002,1.0648885158809838e-15,1.4802973661668753e-16,80.25,80.25,80.25,80.25,80.25,0.0,0.0,34.95000000000002,34.949999999999996,34.95,34.95000000000001,34.95000000000002,1.0658141036401503e-14,2.3684757858670005e-15,-7.26,-14.77,-10.0625,-9.11,-14.77,2.9757467550179735,-2.5033333333333334
1 -> 2,3.220851000000002,3.2208509999999997,3.2208510000000006,3.220851000000001,3.220851000000002,1.0648885158809838e-15,1.4802973661668753e-16,80.25,80.25,80.25,80.25,80.25,0.0,0.0,34.95000000000002,34.949999999999996,34.95,34.95000000000001,34.95000000000002,1.0658141036401503e-14,2.3684757858670005e-15,-19.98,-32.68,-26.92,-27.51,-32.68,4.800062499593104,-4.233333333333333
1 -> 2,3.220851000000002,3.2208509999999997,3.2208510000000006,3.220851000000001,3.220851000000002,1.0648885158809838e-15,1.4802973661668753e-16,80.25,80.25,80.25,80.25,80.25,0.0,0.0,34.95000000000002,34.949999999999996,34.95,34.95000000000001,34.95000000000002,1.0658141036401503e-14,2.3684757858670005e-15,-19.98,-32.68,-26.92,-27.51,-32.68,4.800062499593104,-4.233333333333333
1 -> 2,3.220851000000002,3.2208509999999997,3.2208510000000006,3.220851000000001,3.220851000000002,1.0648885158809838e-15,1.4802973661668753e-16,80.25,80.25,80.25,80.25,80.25,0.0,0.0,34.95000000000002,34.949999999999996,34.95,34.95000000000001,34.95000000000002,1.0658141036401503e-14,2.3684757858670005e-15,-20.84,-33.39,-28.2175,-29.32,-33.39,4.827149132769777,4.183333333333334
1 -> 2,3.220851000000002,3.2208509999999997,3.2208510000000006,3.220851000000001,3.220851000000002,1.0648885158809838e-15,1.4802973661668753e-16,80.25,80.25,80.25,80.25,80.25,0.0,0.0,34.95000000000002,34.949999999999996,34.95,34.95000000000001,34.95000000000002,1.0658141036401503e-14,2.3684757858670005e-15,-20.84,-33.39,-28.2175,-29.32,-33.39,4.827149132769777,4.183333333333334
1 -> 2,3.220851000000002,3.2208509999999997,3.2208510000000006,3.220851000000001,3.220851000000002,1.0648885158809838e-15,1.4802973661668753e-16,80.25,80.25,80.25,80.25,80.25,0.0,0.0,34.95000000000002,34.949999999999996,34.95,34.95000000000001,34.95000000000002,1.0658141036401503e-14,2.3684757858670005e-15,3.93,-13.64,-4.2575,-3.6599999999999997,-13.64,6.586753278361047,5.8566666666666665
1 -> 2,3.220851000000002,3.2208509999999997,3.2208510000000006,3.220851000000001,3.220851000000002,1.0648885158809838e-15,1.4802973661668753e-16,80.25,80.25,80.25,80.25,80.25,0.0,0.0,34.95000000000002,34.949999999999996,34.95,34.95000000000001,34.95000000000002,1.0658141036401503e-14,2.3684757858670005e-15,3.93,-13.64,-4.2575,-3.6599999999999997,-13.64,6.586753278361047,5.8566666666666665
1 -> 2,3.236215000000002,3.2362149999999987,3.2362150000000005,3.2362150000000005,3.236215000000002,1.456043846448818e-15,1.4802973661668753e-16,80.25,80.25,80.25,80.25,80.25,0.0,0.0,34.95000000000002,34.949999999999996,34.95,34.95000000000001,34.95000000000002,1.0658141036401503e-14,2.3684757858670005e-15,15.24,7.41,11.425,11.525,7.41,2.917554626737947,2.61
1 -> 2,3.236215000000002,3.2362149999999987,3.2362150000000005,3.2362150000000005,3.236215000000002,1.456043846448818e-15,1.4802973661668753e-16,80.25,80.25,80.25,80.25,80.25,0.0,0.0,34.95000000000002,34.949999999999996,34.95,34.95000000000001,34.95000000000002,1.0658141036401503e-14,2.3684757858670005e-15,15.24,7.41,11.425,11.525,7.41,2.917554626737947,2.61
1 -> 2,3.236215000000002,3.2362149999999987,3.2362150000000005,3.2362150000000005,3.236215000000002,1.456043846448818e-15,1.4802973661668753e-16,80.25,80.25,80.25,80.25,80.25,0.0,0.0,34.95000000000002,34.949999999999996,34.95,34.95000000000001,34.95000000000002,1.0658141036401503e-14,2.3684757858670005e-15,18.35,17.2,17.775,17.775,17.2,0.5650884886458053,-0.006666666666666525
1 -> 2,3.236215000000002,3.2362149999999987,3.2362150000000005,3.2362150000000005,3.236215000000002,1.456043846448818e-15,1.4802973661668753e-16,80.25,80.25,80.25,80.25,80.25,0.0,0.0,34.95000000000002,34.949999999999996,34.95,34.95000000000001,34.95000000000002,1.0658141036401503e-14,2.3684757858670005e-15,18.35,17.2,17.775,17.775,17.2,0.5650884886458053,-0.006666666666666525
1 -> 2,3.236215000000002,3.2362149999999987,3.2362150000000005,3.2362150000000005,3.236215000000002,1.456043846448818e-15,1.4802973661668753e-16,80.25,80.25,80.25,80.25,80.25,0.0,0.0,34.95000000000002,34.949999999999996,34.95,34.95000000000001,34.95000000000002,1.0658141036401503e-14,2.3684757858670005e-15,15.33,9.97,12.47,12.29,9.97,2.016283710195567,-1.7866666666666664
1 -> 2,3.236215000000002,3.2362149999999987,3.2362150000000005,3.2362150000000005,3.236215000000002,1.456043846448818e-15,1.4802973661668753e-16,80.25,80.25,80.25,80.25,80.25,0.0,0.0,34.95000000000002,34.949999999999996,34.95,34.95000000000001,34.95000000000002,1.0658141036401503e-14,2.3684757858670005e-15,15.33,9.97,12.47,12.29,9.97,2.016283710195567,-1.7866666666666664
1 -> 2,3.236215000000002,3.2362149999999987,3.2362150000000005,3.2362150000000005,3.236215000000002,1.456043846448818e-15,1.4802973661668753e-16,80.25,80.25,80.25,80.25,80.25,0.0,0.0,34.95000000000002,34.949999999999996,34.95,34.95000000000001,34.95000000000002,1.0658141036401503e-14,2.3684757858670005e-15,9.13,8.29,8.6575,8.605,8.29,0.3105941886127304,-0.2800000000000005
1 -> 2,3.236215000000002,3.2362149999999987,3.2362150000000005,3.2362150000000005,3.236215000000002,1.456043846448818e-15,1.4802973661668753e-16,80.25,80.25,80.25,80.25,80.25,0.0,0.0,34.95000000000002,34.949999999999996,34.95,34.95000000000001,34.95000000000002,1.0658141036401503e-14,2.3684757858670005e-15,9.13,8.29,8.6575,8.605,8.29,0.3105941886127304,-0.2800000000000005
1 -> 2,3.2515790000000018,3.251578999999998,3.2515790000000004,3.2515790000000004,3.2515790000000018,1.7055569729570692e-15,1.4802973661668753e-16,81.89,81.89,81.89,81.89,81.89,0.0,0.0,34.97000000000001,34.97,34.97000000000001,34.97000000000001,34.97000000000001,7.105427357601002e-15,4.736951571734001e-15,7.92,5.92,6.952500000000001,6.984999999999999,5.92,0.7510451051701222,-0.6666666666666666
1 -> 2,3.2515790000000018,3.251578999999998,3.2515790000000004,3.2515790000000004,3.2515790000000018,1.7055569729570692e-15,1.4802973661668753e-16,81.89,81.89,81.89,81.89,81.89,0.0,0.0,34.97000000000001,34.97,34.97000000000001,34.97000000000001,34.97000000000001,7.105427357601002e-15,4.736951571734001e-15,7.92,5.92,6.952500000000001,6.984999999999999,5.92,0.7510451051701222,-0.6666666666666666
1 -> 2,3.2515790000000018,3.251578999999998,3.2515790000000004,3.2515790000000004,3.2515790000000018,1.7055569729570692e-15,1.4802973661668753e-16,81.89,81.89,81.89,81.89,81.89,0.0,0.0,34.97000000000001,34.97,34.97000000000001,34.97000000000001,34.97000000000001,7.105427357601002e-15,4.736951571734001e-15,5.35,4.13,4.775,4.8100000000000005,4.13,0.4472974401894112,-0.40666666666666657
1 -> 2,3.2515790000000018,3.251578999999998,3.2515790000000004,3.2515790000000004,3.2515790000000018,1.7055569729570692e-15,1.4802973661668753e-16,81.89,81.89,81.89,81.89,81.89,0.0,0.0,34.97000000000001,34.97,34.97000000000001,34.97000000000001,34.97000000000001,7.105427357601002e-15,4.736951571734001e-15,5.35,4.13,4.775,4.8100000000000005,4.13,0.4472974401894112,-0.40666666666666657
1 -> 2,3.2515790000000018,3.251578999999998,3.2515790000000004,3.2515790000000004,3.2515790000000018,1.7055569729570692e-15,1.4802973661668753e-16,81.89,81.89,81.89,81.89,81.89,0.0,0.0,34.97000000000001,34.97,34.97000000000001,34.97000000000001,34.97000000000001,7.105427357601002e-15,4.736951571734001e-15,3.13,-2.85,0.2875,0.435,-2.85,2.249204025872264,-1.9933333333333334
1 -> 2,3.2515790000000018,3.251578999999998,3.2515790000000004,3.2515790000000004,3.2515790000000018,1.7055569729570692e-15,1.4802973661668753e-16,81.89,81.89,81.89,81.89,81.89,0.0,0.0,34.97000000000001,34.97,34.97000000000001,34.97000000000001,34.97000000000001,7.105427357601002e-15,4.736951571734001e-15,3.13,-2.85,0.2875,0.435,-2.85,2.249204025872264,-1.9933333333333334
1 -> 2,3.2515790000000018,3.251578999999998,3.2515790000000004,3.2515790000000004,3.2515790000000018,1.7055569729570692e-15,1.4802973661668753e-16,81.89,81.89,81.89,81.89,81.89,0.0,0.0,34.97000000000001,34.97,34.97000000000001,34.97000000000001,34.97000000000001,7.105427357601002e-15,4.736951571734001e-15,-1.27,-5.06,-3.7175,-4.27,-5.06,1.461016341455495,1.0866666666666667
1 -> 2,3.2515790000000018,3.251578999999998,3.2515790000000004,3.2515790000000004,3.2515790000000018,1.7055569729570692e-15,1.4802973661668753e-16,81.89,81.89,81.89,81.89,81.89,0.0,0.0,34.97000000000001,34.97,34.97000000000001,34.97000000000001,34.97000000000001,7.105427357601002e-15,4.736951571734001e-15,-1.27,-5.06,-3.7175,-4.27,-5.06,1.461016341455495,1.0866666666666667
1 -> 2,3.2618220000000018,3.2618219999999987,3.2618220000000004,3.2618220000000004,3.2618220000000018,1.368774871883577e-15,2.9605947323337506e-16,81.89,81.89,81.89,81.89,81.89,0.0,0.0,34.97000000000001,34.97,34.97000000000001,34.97000000000001,34.97000000000001,7.105427357601002e-15,4.736951571734001e-15,19.2,2.92,10.975,10.89,2.92,6.087448151729918,5.426666666666667
1 -> 2,3.2618220000000018,3.2618219999999987,3.2618220000000004,3.2618220000000004,3.2618220000000018,1.368774871883577e-15,2.9605947323337506e-16,81.89,81.89,81.89,81.89,81.89,0.0,0.0,34.97000000000001,34.97,34.97000000000001,34.97000000000001,34.97000000000001,7.105427357601002e-15,4.736951571734001e-15,19.2,2.92,10.975,10.89,2.92,6.087448151729918,5.426666666666667
1 -> 2,3.2618220000000018,3.2618219999999987,3.2618220000000004,3.2618220000000004,3.2618220000000018,1.368774871883577e-15,2.9605947323337506e-16,81.89,81.89,81.89,81.89,81.89,0.0,0.0,34.97000000000001,34.97,34.97000000000001,34.97000000000001,34.97000000000001,7.105427357601002e-15,4.736951571734001e-15,33.41,24.21,29.375,29.939999999999998,24.21,3.480808095830621,3.066666666666665
1 -> 2,3.2618220000000018,3.2618219999999987,3.2618220000000004,3.2618220000000004,3.2618220000000018,1.368774871883577e-15,2.9605947323337506e-16,81.89,81.89,81.89,81.89,81.89,0.0,0.0,34.97000000000001,34.97,34.97000000000001,34.97000000000001,34.97000000000001,7.105427357601002e-15,4.736951571734001e-15,33.41,24.21,29.375,29.939999999999998,24.21,3.480808095830621,3.066666666666665
1 -> 2,3.2618220000000018,3.2618219999999987,3.2618220000000004,3.2618220000000004,3.2618220000000018,1.368774871883577e-15,2.9605947323337506e-16,81.89,81.89,81.89,81.89,81.89,0.0,0.0,34.97000000000001,34.97,34.97000000000001,34.97000000000001,34.97000000000001,7.105427357601002e-15,4.736951571734001e-15,34.11,31.16,32.92,33.205,31.16,1.1502391055776182,-0.9833333333333331
1 -> 2,3.2618220000000018,3.2618219999999987,3.2618220000000004,3.2618220000000004,3.2618220000000018,1.368774871883577e-15,2.9605947323337506e-16,81.89,81.89,81.89,81.89,81.89,0.0,0.0,34.97000000000001,34.97,34.97000000000001,34.97000000000001,34.97000000000001,7.105427357601002e-15,4.736951571734001e-15,34.11,31.16,32.92,33.205,31.16,1.1502391055776182,-0.9833333333333331
1 -> 2,3.2618220000000018,3.2618219999999987,3.2618220000000004,3.2618220000000004,3.2618220000000018,1.368774871883577e-15,2.9605947323337506e-16,81.89,81.89,81.89,81.89,81.89,0.0,0.0,34.97000000000001,34.97,34.97000000000001,34.97000000000001,34.97000000000001,7.105427357601002e-15,4.736951571734001e-15,29.64,25.8,27.685,27.65,25.8,1.4249473674490578,-1.28
1 -> 2,3.2618220000000018,3.2618219999999987,3.2618220000000004,3.2618220000000004,3.2618220000000018,1.368774871883577e-15,2.9605947323337506e-16,81.89,81.89,81.89,81.89,81.89,0.0,0.0,34.97000000000001,34.97,34.97000000000001,34.97000000000001,34.97000000000001,7.105427357601002e-15,4.736951571734001e-15,29.64,25.8,27.685,27.65,25.8,1.4249473674490578,-1.28
1 -> 2,3.2643820000000017,3.2643819999999977,3.264382,3.2643820000000003,3.2643820000000017,1.8038988979531736e-15,-2.9605947323337506e-16,81.89,81.89,81.89,81.89,81.89,0.0,0.0,34.97000000000001,34.97,34.97000000000001,34.97000000000001,34.97000000000001,7.105427357601002e-15,4.736951571734001e-15,24.34,17.78,21.2175,21.375,17.78,2.4547135779964218,-2.186666666666666
1 -> 2,3.2643820000000017,3.2643819999999977,3.264382,3.2643820000000003,3.2643820000000017,1.8038988979531736e-15,-2.9605947323337506e-16,81.89,81.89,81.89,81.89,81.89,0.0,0.0,34.97000000000001,34.97,34.97000000000001,34.97000000000001,34.97000000000001,7.105427357601002e-15,4.736951571734001e-15,24.34,17.78,21.2175,21.375,17.78,2.4547135779964218,-2.186666666666666
1 -> 2,3.2643820000000017,3.2643819999999977,3.264382,3.2643820000000003,3.2643820000000017,1.8038988979531736e-15,-2.9605947323337506e-16,81.89,81.89,81.89,81.89,81.89,0.0,0.0,34.97000000000001,34.97,34.97000000000001,34.97000000000001,34.97000000000001,7.105427357601002e-15,4.736951571734001e-15,15.29,9.37,12.159999999999998,11.99,9.37,2.2135378921536444,-1.9733333333333334
1 -> 2,3.2643820000000017,3.2643819999999977,3.264382,3.2643820000000003,3.2643820000000017,1.8038988979531736e-15,-2.9605947323337506e-16,81.89,81.89,81.89,81.89,81.89,0.0,0.0,34.97000000000001,34.97,34.97000000000001,34.97000000000001,34.97000000000001,7.105427357601002e-15,4.736951571734001e-15,15.29,9.37,12.159999999999998,11.99,9.37,2.2135378921536444,-1.9733333333333334
1 -> 2,3.2643820000000017,3.2643819999999977,3.264382,3.2643820000000003,3.2643820000000017,1.8038988979531736e-15,-2.9605947323337506e-16,81.89,81.89,81.89,81.89,81.89,0.0,0.0,34.97000000000001,34.97,34.97000000000001,34.97000000000001,34.97000000000001,7.105427357601002e-15,4.736951571734001e-15,8.0,3.64,5.93,6.04,3.64,1.6206017400953265,-1.4533333333333331
1 -> 2,3.2643820000000017,3.2643819999999977,3.264382,3.2643820000000003,3.2643820000000017,1.8038988979531736e-15,-2.9605947323337506e-16,81.89,81.89,81.89,81.89,81.89,0.0,0.0,34.97000000000001,34.97,34.97000000000001,34.97000000000001,34.97000000000001,7.105427357601002e-15,4.736951571734001e-15,8.0,3.64,5.93,6.04,3.64,1.6206017400953265,-1.4533333333333331
1 -> 2,3.2643820000000017,3.2643819999999977,3.264382,3.2643820000000003,3.2643820000000017,1.8038988979531736e-15,-2.9605947323337506e-16,81.89,81.89,81.89,81.89,81.89,0.0,0.0,34.97000000000001,34.97,34.97000000000001,34.97000000000001,34.97000000000001,7.105427357601002e-15,4.736951571734001e-15,1.4,-7.88,-3.1325,-3.025,-7.88,3.4756968725710244,-3.0933333333333333
1 -> 2,3.2643820000000017,3.2643819999999977,3.264382,3.2643820000000003,3.2643820000000017,1.8038988979531736e-15,-2.9605947323337506e-16,81.89,81.89,81.89,81.89,81.89,0.0,0.0,34.97000000000001,34.97,34.97000000000001,34.97000000000001,34.97000000000001,7.105427357601002e-15,4.736951571734001e-15,1.4,-7.88,-3.1325,-3.025,-7.88,3.4756968725710244,-3.0933333333333333
1 -> 2,3.2669430000000017,3.266942999999998,3.2669430000000004,3.2669430000000004,3.2669430000000017,1.6011864169946884e-15,2.9605947323337506e-16,81.89,81.89,81.89,81.89,81.89,0.0,0.0,34.97000000000001,34.97,34.97000000000001,34.97000000000001,34.97000000000001,7.105427357601002e-15,4.736951571734001e-15,-10.2,-12.08,-11.215,-11.29,-12.08,0.8449112379415958,0.1200000000000004
1 -> 2,3.2669430000000017,3.266942999999998,3.2669430000000004,3.2669430000000004,3.2669430000000017,1.6011864169946884e-15,2.9605947323337506e-16,81.89,81.89,81.89,81.89,81.89,0.0,0.0,34.97000000000001,34.97,34.97000000000001,34.97000000000001,34.97000000000001,7.105427357601002e-15,4.736951571734001e-15,-10.2,-12.08,-11.215,-11.29,-12.08,0.8449112379415958,0.1200000000000004
1 -> 2,3.2669430000000017,3.266942999999998,3.2669430000000004,3.2669430000000004,3.2669430000000017,1.6011864169946884e-15,2.9605947323337506e-16,81.89,81.89,81.89,81.89,81.89,0.0,0.0,34.97000000000001,34.97,34.97000000000001,34.97000000000001,34.97000000000001,7.105427357601002e-15,4.736951571734001e-15,9.0,-6.75,0.8975,0.6700000000000002,-6.75,5.895656770029952,5.25
1 -> 2,3.2669430000000017,3.266942999999998,3.2669430000000004,3.2669430000000004,3.2669430000000017,1.6011864169946884e-15,2.9605947323337506e-16,81.89,81.89,81.89,81.89,81.89,0.0,0.0,34.97000000000001,34.97,34.97000000000001,34.97000000000001,34.97000000000001,7.105427357601002e-15,4.736951571734001e-15,9.0,-6.75,0.8975,0.6700000000000002,-6.75,5.895656770029952,5.25
1 -> 2,3.2669430000000017,3.266942999999998,3.2669430000000004,3.2669430000000004,3.2669430000000017,1.6011864169946884e-15,2.9605947323337506e-16,81.89,81.89,81.89,81.89,81.89,0.0,0.0,34.97000000000001,34.97,34.97000000000001,34.97000000000001,34.97000000000001,7.105427357601002e-15,4.736951571734001e-15,23.73,14.24,19.6275,20.27,14.24,3.6031262467473995,3.1633333333333336
1 -> 2,3.2669430000000017,3.266942999999998,3.2669430000000004,3.2669430000000004,3.2669430000000017,1.6011864169946884e-15,2.9605947323337506e-16,81.89,81.89,81.89,81.89,81.89,0.0,0.0,34.97000000000001,34.97,34.97000000000001,34.97000000000001,34.97000000000001,7.105427357601002e-15,4.736951571734001e-15,23.73,14.24,19.6275,20.27,14.24,3.6031262467473995,3.1633333333333336
1 -> 2,3.2669430000000017,3.266942999999998,3.2669430000000004,3.2669430000000004,3.2669430000000017,1.6011864169946884e-15,2.9605947323337506e-16,81.89,81.89,81.89,81.89,81.89,0.0,0.0,34.97000000000001,34.97,34.97000000000001,34.97000000000001,34.97000000000001,7.105427357601002e-15,4.736951571734001e-15,24.14,19.16,22.015,22.380000000000003,19.16,1.9074262764259071,-1.6600000000000001
1 -> 2,3.2669430000000017,3.266942999999998,3.2669430000000004,3.2669430000000004,3.2669430000000017,1.6011864169946884e-15,2.9605947323337506e-16,81.89,81.89,81.89,81.89,81.89,0.0,0.0,34.97000000000001,34.97,34.97000000000001,34.97000000000001,34.97000000000001,7.105427357601002e-15,4.736951571734001e-15,24.14,19.16,22.015,22.380000000000003,19.16,1.9074262764259071,-1.6600000000000001
1 -> 2,3.268224000000002,3.268224,3.268224000000001,3.2682240000000014,3.268224000000002,7.691850745534255e-16,2.9605947323337506e-16,83.2,83.2,83.2,83.2,83.2,0.0,0.0,34.97000000000001,34.97,34.97000000000001,34.97000000000001,34.97000000000001,7.105427357601002e-15,4.736951571734001e-15,16.72,10.68,13.58,13.46,10.68,2.250477727061523,-2.013333333333333
1 -> 2,3.268224000000002,3.268224,3.268224000000001,3.2682240000000014,3.268224000000002,7.691850745534255e-16,2.9605947323337506e-16,83.2,83.2,83.2,83.2,83.2,0.0,0.0,34.97000000000001,34.97,34.97000000000001,34.97000000000001,34.97000000000001,7.105427357601002e-15,4.736951571734001e-15,16.72,10.68,13.58,13.46,10.68,2.250477727061523,-2.013333333333333
1 -> 2,3.268224000000002,3.268224,3.268224000000001,3.2682240000000014,3.268224000000002,7.691850745534255e-16,2.9605947323337506e-16,83.2,83.2,83.2,83.2,83.2,0.0,0.0,34.97000000000001,34.97,34.97000000000001,34.97000000000001,34.97000000000001,7.105427357601002e-15,4.736951571734001e-15,8.9,2.53,5.8,5.885,2.53,2.3784764030782397,-2.1233333333333335
1 -> 2,3.268224000000002,3.268224,3.268224000000001,3.2682240000000014,3.268224000000002,7.691850745534255e-16,2.9605947323337506e-16,83.2,83.2,83.2,83.2,83.2,0.0,0.0,34.97000000000001,34.97,34.97000000000001,34.97000000000001,34.97000000000001,7.105427357601002e-15,4.736951571734001e-15,8.9,2.53,5.8,5.885,2.53,2.3784764030782397,-2.1233333333333335
1 -> 2,3.268224000000002,3.268224,3.268224000000001,3.2682240000000014,3.268224000000002,7.691850745534255e-16,2.9605947323337506e-16,83.2,83.2,83.2,83.2,83.2,0.0,0.0,34.97000000000001,34.97,34.97000000000001,34.97000000000001,34.97000000000001,7.105427357601002e-15,4.736951571734001e-15,0.36,-3.55,-1.85,-2.105,-3.55,1.4778531726798843,-1.3033333333333332
1 -> 2,3.268224000000002,3.268224,3.268224000000001,3.2682240000000014,3.268224000000002,7.691850745534255e-16,2.9605947323337506e-16,83.2,83.2,83.2,83.2,83.2,0.0,0.0,34.97000000000001,34.97,34.97000000000001,34.97000000000001,34.97000000000001,7.105427357601002e-15,4.736951571734001e-15,0.36,-3.55,-1.85,-2.105,-3.55,1.4778531726798843,-1.3033333333333332
1 -> 2,3.268224000000002,3.268224,3.268224000000001,3.2682240000000014,3.268224000000002,7.691850745534255e-16,2.9605947323337506e-16,83.2,83.2,83.2,83.2,83.2,0.0,0.0,34.97000000000001,34.97,34.97000000000001,34.97000000000001,34.97000000000001,7.105427357601002e-15,4.736951571734001e-15,-4.06,-7.96,-5.637499999999999,-5.265,-7.96,1.486983103468227,-1.3
1 -> 2,3.268224000000002,3.268224,3.268224000000001,3.2682240000000014,3.268224000000002,7.691850745534255e-16,2.9605947323337506e-16,83.2,83.2,83.2,83.2,83.2,0.0,0.0,34.97000000000001,34.97,34.97000000000001,34.97000000000001,34.97000000000001,7.105427357601002e-15,4.736951571734001e-15,-4.06,-7.96,-5.637499999999999,-5.265,-7.96,1.486983103468227,-1.3
1 -> 2,3.2759050000000016,3.275905,3.2759050000000007,3.275905000000001,3.2759050000000016,7.691850745534255e-16,2.9605947323337506e-16,83.2,83.2,83.2,83.2,83.2,0.0,0.0,34.97000000000001,34.97,34.97000000000001,34.97000000000001,34.97000000000001,7.105427357601002e-15,4.736951571734001e-15,-11.18,-24.51,-17.775,-17.705,-24.51,4.994209146601693,-4.443333333333334
1 -> 2,3.2759050000000016,3.275905,3.2759050000000007,3.275905000000001,3.2759050000000016,7.691850745534255e-16,2.9605947323337506e-16,83.2,83.2,83.2,83.2,83.2,0.0,0.0,34.97000000000001,34.97,34.97000000000001,34.97000000000001,34.97000000000001,7.105427357601002e-15,4.736951571734001e-15,-11.18,-24.51,-17.775,-17.705,-24.51,4.994209146601693,-4.443333333333334
1 -> 2,3.2759050000000016,3.275905,3.2759050000000007,3.275905000000001,3.2759050000000016,7.691850745534255e-16,2.9605947323337506e-16,83.2,83.2,83.2,83.2,83.2,0.0,0.0,34.97000000000001,34.97,34.97000000000001,34.97000000000001,34.97000000000001,7.105427357601002e-15,4.736951571734001e-15,-26.72,-29.75,-28.455,-28.674999999999997,-29.75,1.2018839378242812,0.4166666666666667
1 -> 2,3.2759050000000016,3.275905,3.2759050000000007,3.275905000000001,3.2759050000000016,7.691850745534255e-16,2.9605947323337506e-16,83.2,83.2,83.2,83.2,83.2,0.0,0.0,34.97000000000001,34.97,34.97000000000001,34.97000000000001,34.97000000000001,7.105427357601002e-15,4.736951571734001e-15,-26.72,-29.75,-28.455,-28.674999999999997,-29.75,1.2018839378242812,0.4166666666666667
1 -> 2,3.2759050000000016,3.275905,3.2759050000000007,3.275905000000001,3.2759050000000016,7.691850745534255e-16,2.9605947323337506e-16,83.2,83.2,83.2,83.2,83.2,0.0,0.0,34.97000000000001,34.97,34.97000000000001,34.97000000000001,34.97000000000001,7.105427357601002e-15,4.736951571734001e-15,-1.17,-22.0,-11.852500000000001,-12.120000000000001,-22.0,7.794338891144008,6.9433333333333325
1 -> 2,3.2759050000000016,3.275905,3.2759050000000007,3.275905000000001,3.2759050000000016,7.691850745534255e-16,2.9605947323337506e-16,83.2,83.2,83.2,83.2,83.2,0.0,0.0,34.97000000000001,34.97,34.97000000000001,34.97000000000001,34.97000000000001,7.105427357601002e-15,4.736951571734001e-15,-1.17,-22.0,-11.852500000000001,-12.120000000000001,-22.0,7.794338891144008,6.9433333333333325
1 -> 2,3.2759050000000016,3.275905,3.2759050000000007,3.275905000000001,3.2759050000000016,7.691850745534255e-16,2.9605947323337506e-16,83.2,83.2,83.2,83.2,83.2,0.0,0.0,34.97000000000001,34.97,34.97000000000001,34.97000000000001,34.97000000000001,7.105427357601002e-15,4.736951571734001e-15,20.06,5.74,13.515,14.13,5.74,5.375037209173533,4.7733333333333325
1 -> 2,3.2759050000000016,3.275905,3.2759050000000007,3.275905000000001,3.2759050000000016,7.691850745534255e-16,2.9605947323337506e-16,83.2,83.2,83.2,83.2,83.2,0.0,0.0,34.97000000000001,34.97,34.97000000000001,34.97000000000001,34.97000000000001,7.105427357601002e-15,4.736951571734001e-15,20.06,5.74,13.515,14.13,5.74,5.375037209173533,4.7733333333333325
1 -> 2,3.2848680000000017,3.284867999999999,3.2848680000000003,3.2848680000000003,3.284867999999999,1.3322676295501878e-15,0.0,83.2,83.2,83.2,83.2,83.2,0.0,0.0,34.97000000000001,34.97,34.97000000000001,34.97000000000001,34.97000000000001,7.105427357601002e-15,4.736951571734001e-15,23.42,22.32,22.942500000000003,23.015,22.32,0.4723544749444005,0.10999999999999943
1 -> 2,3.2848680000000017,3.284867999999999,3.2848680000000003,3.2848680000000003,3.284867999999999,1.3322676295501878e-15,0.0,83.2,83.2,83.2,83.2,83.2,0.0,0.0,34.97000000000001,34.97,34.97000000000001,34.97000000000001,34.97000000000001,7.105427357601002e-15,4.736951571734001e-15,23.42,22.32,22.942500000000003,23.015,22.32,0.4723544749444005,0.10999999999999943
1 -> 2,3.2848680000000017,3.284867999999999,3.2848680000000003,3.2848680000000003,3.284867999999999,1.3322676295501878e-15,0.0,83.2,83.2,83.2,83.2,83.2,0.0,0.0,34.97000000000001,34.97,34.97000000000001,34.97000000000001,34.97000000000001,7.105427357601002e-15,4.736951571734001e-15,21.33,16.23,18.83,18.88,16.23,1.9035624497241999,-1.6999999999999993
1 -> 2,3.2848680000000017,3.284867999999999,3.2848680000000003,3.2848680000000003,3.284867999999999,1.3322676295501878e-15,0.0,83.2,83.2,83.2,83.2,83.2,0.0,0.0,34.97000000000001,34.97,34.97000000000001,34.97000000000001,34.97000000000001,7.105427357601002e-15,4.736951571734001e-15,21.33,16.23,18.83,18.88,16.23,1.9035624497241999,-1.6999999999999993
1 -> 2,3.2848680000000017,3.284867999999999,3.2848680000000003,3.2848680000000003,3.284867999999999,1.3322676295501878e-15,0.0,83.2,83.2,83.2,83.2,83.2,0.0,0.0,34.97000000000001,34.97,34.97000000000001,34.97000000000001,34.97000000000001,7.105427357601002e-15,4.736951571734001e-15,14.25,7.16,10.752500000000001,10.8,7.16,2.6514088236256588,-2.3633333333333333
1 -> 2,3.2848680000000017,3.284867999999999,3.2848680000000003,3.2848680000000003,3.284867999999999,1.3322676295501878e-15,0.0,83.2,83.2,83.2,83.2,83.2,0.0,0.0,34.97000000000001,34.97,34.97000000000001,34.97000000000001,34.97000000000001,7.105427357601002e-15,4.736951571734001e-15,14.25,7.16,10.752500000000001,10.8,7.16,2.6514088236256588,-2.3633333333333333
1 -> 2,3.2848680000000017,3.284867999999999,3.2848680000000003,3.2848680000000003,3.284867999999999,1.3322676295501878e-15,0.0,83.2,83.2,83.2,83.2,83.2,0.0,0.0,34.97000000000001,34.97,34.97000000000001,34.97000000000001,34.97000000000001,7.105427357601002e-15,4.736951571734001e-15,5.1,2.49,3.525,3.255,2.49,1.0012117658118085,-0.8699999999999998
1 -> 2,3.2848680000000017,3.284867999999999,3.2848680000000003,3.2848680000000003,3.284867999999999,1.3322676295501878e-15,0.0,83.2,83.2,83.2,83.2,83.2,0.0,0.0,34.97000000000001,34.97,34.97000000000001,34.97000000000001,34.97000000000001,7.105427357601002e-15,4.736951571734001e-15,5.1,2.49,3.525,3.255,2.49,1.0012117658118085,-0.8699999999999998
1 -> 2,3.2707840000000017,3.270783999999999,3.2707840000000004,3.270784000000001,3.2707840000000017,1.2362920382602608e-15,1.4802973661668753e-16,83.2,83.2,83.2,83.2,83.2,0.0,0.0,34.97000000000001,34.97,34.97000000000001,34.97000000000001,34.97000000000001,7.105427357601002e-15,4.736951571734001e-15,2.16,-1.83,0.47,0.775,-1.83,1.5179426866650796,-1.33
1 -> 2,3.2707840000000017,3.270783999999999,3.2707840000000004,3.270784000000001,3.2707840000000017,1.2362920382602608e-15,1.4802973661668753e-16,83.2,83.2,83.2,83.2,83.2,0.0,0.0,34.97000000000001,34.97,34.97000000000001,34.97000000000001,34.97000000000001,7.105427357601002e-15,4.736951571734001e-15,2.16,-1.83,0.47,0.775,-1.83,1.5179426866650796,-1.33
1 -> 2,3.2707840000000017,3.270783999999999,3.2707840000000004,3.270784000000001,3.2707840000000017,1.2362920382602608e-15,1.4802973661668753e-16,83.2,83.2,83.2,83.2,83.2,0.0,0.0,34.97000000000001,34.97,34.97000000000001,34.97000000000001,34.97000000000001,7.105427357601002e-15,4.736951571734001e-15,-4.24,-12.45,-8.3525,-8.36,-12.45,3.069139741034937,-2.7366666666666664
1 -> 2,3.2707840000000017,3.270783999999999,3.2707840000000004,3.270784000000001,3.2707840000000017,1.2362920382602608e-15,1.4802973661668753e-16,83.2,83.2,83.2,83.2,83.2,0.0,0.0,34.97000000000001,34.97,34.97000000000001,34.97000000000001,34.97000000000001,7.105427357601002e-15,4.736951571734001e-15,-4.24,-12.45,-8.3525,-8.36,-12.45,3.069139741034937,-2.7366666666666664
1 -> 2,3.2707840000000017,3.270783999999999,3.2707840000000004,3.270784000000001,3.2707840000000017,1.2362920382602608e-15,1.4802973661668753e-16,83.2,83.2,83.2,83.2,83.2,0.0,0.0,34.97000000000001,34.97,34.97000000000001,34.97000000000001,34.97000000000001,7.105427357601002e-15,4.736951571734001e-15,-11.83,-15.55,-14.18,-14.67,-15.55,1.4049733093550212,0.9166666666666666
1 -> 2,3.2707840000000017,3.270783999999999,3.2707840000000004,3.270784000000001,3.2707840000000017,1.2362920382602608e-15,1.4802973661668753e-16,83.2,83.2,83.2,83.2,83.2,0.0,0.0,34.97000000000001,34.97,34.97000000000001,34.97000000000001,34.97000000000001,7.105427357601002e-15,4.736951571734001e-15,-11.83,-15.55,-14.18,-14.67,-15.55,1.4049733093550212,0.9166666666666666
1 -> 2,3.2707840000000017,3.270783999999999,3.2707840000000004,3.270784000000001,3.2707840000000017,1.2362920382602608e-15,1.4802973661668753e-16,83.2,83.2,83.2,83.2,83.2,0.0,0.0,34.97000000000001,34.97,34.97000000000001,34.97000000000001,34.97000000000001,7.105427357601002e-15,4.736951571734001e-15,12.53,-6.87,2.83,2.83,-6.87,7.263415174695716,6.466666666666666
1 -> 2,3.2707840000000017,3.270783999999999,3.2707840000000004,3.270784000000001,3.2707840000000017,1.2362920382602608e-15,1.4802973661668753e-16,83.2,83.2,83.2,83.2,83.2,0.0,0.0,34.97000000000001,34.97,34.97000000000001,34.97000000000001,34.97000000000001,7.105427357601002e-15,4.736951571734001e-15,12.53,-6.87,2.83,2.83,-6.87,7.263415174695716,6.466666666666666
1 -> 2,3.2669430000000017,3.266942999999998,3.2669430000000004,3.2669430000000004,3.2669430000000017,1.6011864169946884e-15,2.9605947323337506e-16,84.27,84.27,84.27,84.27,84.27,0.0,0.0,34.97000000000001,34.97,34.97000000000001,34.97000000000001,34.97000000000001,7.105427357601002e-15,4.736951571734001e-15,28.65,17.92,23.692500000000003,24.1,17.92,4.017694457023827,3.5766666666666658
