PHASE,EDA_MAX,EDA_MIN,EDA_MEAN,EDA_MEDIAN,EDA_MODE,EDA_SD,EDA_DIFF,HR_MAX,HR_MIN,HR_MEAN,HR_MEDIAN,HR_MODE,HR_SD,HR_DIFF,SKT_MAX,SKT_MIN,SKT_MEAN,SKT_MEDIAN,SKT_MODE,SKT_SD,SKT_DIFF,BVP_MAX,BVP_MIN,BVP_MEAN,BVP_MEDIAN,BVP_MODE,BVP_SD,BVP_DIFF
1 -> 2,6.994775000000003,6.994775,6.994775000000002,6.994775000000002,6.994775000000003,1.7199501139797033e-15,-2.9605947323337506e-16,93.0,93.0,93.0,93.0,93.0,0.0,0.0,36.05000000000001,36.04999999999999,36.050000000000004,36.050000000000004,36.05000000000001,9.39959687352353e-15,-2.3684757858670005e-15,3.74,-8.0,-2.1225,-2.115,-8.0,4.402421918671585,-3.9133333333333336
1 -> 2,6.994775000000003,6.994775,6.994775000000002,6.994775000000002,6.994775000000003,1.7199501139797033e-15,-2.9605947323337506e-16,93.0,93.0,93.0,93.0,93.0,0.0,0.0,36.05000000000001,36.04999999999999,36.050000000000004,36.050000000000004,36.05000000000001,9.39959687352353e-15,-2.3684757858670005e-15,3.74,-8.0,-2.1225,-2.115,-8.0,4.402421918671585,-3.9133333333333336
1 -> 2,6.994775000000003,6.994775,6.994775000000002,6.994775000000002,6.994775000000003,1.7199501139797033e-15,-2.9605947323337506e-16,93.0,93.0,93.0,93.0,93.0,0.0,0.0,36.05000000000001,36.04999999999999,36.050000000000004,36.050000000000004,36.05000000000001,9.39959687352353e-15,-2.3684757858670005e-15,-7.02,-11.47,-9.835,-10.425,-11.47,1.6878166369603071,1.2100000000000002
1 -> 2,6.994775000000003,6.994775,6.994775000000002,6.994775000000002,6.994775000000003,1.7199501139797033e-15,-2.9605947323337506e-16,93.0,93.0,93.0,93.0,93.0,0.0,0.0,36.05000000000001,36.04999999999999,36.050000000000004,36.050000000000004,36.05000000000001,9.39959687352353e-15,-2.3684757858670005e-15,-7.02,-11.47,-9.835,-10.425,-11.47,1.6878166369603071,1.2100000000000002
1 -> 2,6.994775000000003,6.994775,6.994775000000002,6.994775000000002,6.994775000000003,1.7199501139797033e-15,-2.9605947323337506e-16,93.0,93.0,93.0,93.0,93.0,0.0,0.0,36.05000000000001,36.04999999999999,36.050000000000004,36.050000000000004,36.05000000000001,9.39959687352353e-15,-2.3684757858670005e-15,10.68,-2.54,4.3925,4.715,-2.54,4.960500856768397,4.406666666666666
1 -> 2,6.994775000000003,6.994775,6.994775000000002,6.994775000000002,6.994775000000003,1.7199501139797033e-15,-2.9605947323337506e-16,93.0,93.0,93.0,93.0,93.0,0.0,0.0,36.05000000000001,36.04999999999999,36.050000000000004,36.050000000000004,36.05000000000001,9.39959687352353e-15,-2.3684757858670005e-15,10.68,-2.54,4.3925,4.715,-2.54,4.960500856768397,4.406666666666666
1 -> 2,6.994775000000003,6.994775,6.994775000000002,6.994775000000002,6.994775000000003,1.7199501139797033e-15,-2.9605947323337506e-16,93.0,93.0,93.0,93.0,93.0,0.0,0.0,36.05000000000001,36.04999999999999,36.050000000000004,36.050000000000004,36.05000000000001,9.39959687352353e-15,-2.3684757858670005e-15,15.36,13.13,14.497499999999999,14.75,13.13,0.8546161419023159,0.7433333333333328
1 -> 2,6.994775000000003,6.994775,6.994775000000002,6.994775000000002,6.994775000000003,1.7199501139797033e-15,-2.9605947323337506e-16,93.0,93.0,93.0,93.0,93.0,0.0,0.0,36.05000000000001,36.04999999999999,36.050000000000004,36.050000000000004,36.05000000000001,9.39959687352353e-15,-2.3684757858670005e-15,15.36,13.13,14.497499999999999,14.75,13.13,0.8546161419023159,0.7433333333333328
1 -> 2,6.933322000000004,6.933321999999997,6.933322,6.933322,6.933322000000004,3.352800008858181e-15,2.9605947323337506e-16,93.0,93.0,93.0,93.0,93.0,0.0,0.0,36.05000000000001,36.04999999999999,36.050000000000004,36.050000000000004,36.05000000000001,9.39959687352353e-15,-2.3684757858670005e-15,16.08,14.72,15.625,15.850000000000001,14.72,0.538771751301049,-0.3333333333333333
1 -> 2,6.933322000000004,6.933321999999997,6.933322,6.933322,6.933322000000004,3.352800008858181e-15,2.9605947323337506e-16,93.0,93.0,93.0,93.0,93.0,0.0,0.0,36.05000000000001,36.04999999999999,36.050000000000004,36.050000000000004,36.05000000000001,9.39959687352353e-15,-2.3684757858670005e-15,16.08,14.72,15.625,15.850000000000001,14.72,0.538771751301049,-0.3333333333333333
1 -> 2,6.933322000000004,6.933321999999997,6.933322,6.933322,6.933322000000004,3.352800008858181e-15,2.9605947323337506e-16,93.0,93.0,93.0,93.0,93.0,0.0,0.0,36.05000000000001,36.04999999999999,36.050000000000004,36.050000000000004,36.05000000000001,9.39959687352353e-15,-2.3684757858670005e-15,11.56,-8.52,2.1125000000000007,2.705,-8.52,7.549832365688658,-6.6933333333333325
1 -> 2,6.933322000000004,6.933321999999997,6.933322,6.933322,6.933322000000004,3.352800008858181e-15,2.9605947323337506e-16,93.0,93.0,93.0,93.0,93.0,0.0,0.0,36.05000000000001,36.04999999999999,36.050000000000004,36.050000000000004,36.05000000000001,9.39959687352353e-15,-2.3684757858670005e-15,11.56,-8.52,2.1125000000000007,2.705,-8.52,7.549832365688658,-6.6933333333333325
1 -> 2,6.933322000000004,6.933321999999997,6.933322,6.933322,6.933322000000004,3.352800008858181e-15,2.9605947323337506e-16,93.0,93.0,93.0,93.0,93.0,0.0,0.0,36.05000000000001,36.04999999999999,36.050000000000004,36.050000000000004,36.05000000000001,9.39959687352353e-15,-2.3684757858670005e-15,-15.38,-23.34,-20.4025,-21.445,-23.34,3.1236707172811924,-2.653333333333333
1 -> 2,6.933322000000004,6.933321999999997,6.933322,6.933322,6.933322000000004,3.352800008858181e-15,2.9605947323337506e-16,93.0,93.0,93.0,93.0,93.0,0.0,0.0,36.05000000000001,36.04999999999999,36.050000000000004,36.050000000000004,36.05000000000001,9.39959687352353e-15,-2.3684757858670005e-15,-15.38,-23.34,-20.4025,-21.445,-23.34,3.1236707172811924,-2.653333333333333
1 -> 2,6.933322000000004,6.933321999999997,6.933322,6.933322,6.933322000000004,3.352800008858181e-15,2.9605947323337506e-16,93.0,93.0,93.0,93.0,93.0,0.0,0.0,36.05000000000001,36.04999999999999,36.050000000000004,36.050000000000004,36.05000000000001,9.39959687352353e-15,-2.3684757858670005e-15,-23.47,-32.69,-26.9925,-25.905,-32.69,3.5850688626580096,-3.073333333333333
1 -> 2,6.933322000000004,6.933321999999997,6.933322,6.933322,6.933322000000004,3.352800008858181e-15,2.9605947323337506e-16,93.0,93.0,93.0,93.0,93.0,0.0,0.0,36.05000000000001,36.04999999999999,36.050000000000004,36.050000000000004,36.05000000000001,9.39959687352353e-15,-2.3684757858670005e-15,-23.47,-32.69,-26.9925,-25.905,-32.69,3.5850688626580096,-3.073333333333333
1 -> 2,6.874431000000004,6.874430999999999,6.874431000000001,6.874431000000001,6.874430999999999,2.6645352591003757e-15,0.0,93.0,93.0,93.0,93.0,93.0,0.0,0.0,36.05000000000001,36.04999999999999,36.050000000000004,36.050000000000004,36.05000000000001,9.39959687352353e-15,-2.3684757858670005e-15,-40.48,-69.56,-55.144999999999996,-55.269999999999996,-69.56,10.90791799565802,-9.693333333333335
1 -> 2,6.874431000000004,6.874430999999999,6.874431000000001,6.874431000000001,6.874430999999999,2.6645352591003757e-15,0.0,93.0,93.0,93.0,93.0,93.0,0.0,0.0,36.05000000000001,36.04999999999999,36.050000000000004,36.050000000000004,36.05000000000001,9.39959687352353e-15,-2.3684757858670005e-15,-40.48,-69.56,-55.144999999999996,-55.269999999999996,-69.56,10.90791799565802,-9.693333333333335
1 -> 2,6.874431000000004,6.874430999999999,6.874431000000001,6.874431000000001,6.874430999999999,2.6645352591003757e-15,0.0,93.0,93.0,93.0,93.0,93.0,0.0,0.0,36.05000000000001,36.04999999999999,36.050000000000004,36.050000000000004,36.05000000000001,9.39959687352353e-15,-2.3684757858670005e-15,-61.85,-76.22,-71.2125,-73.39,-76.22,5.709099644427305,4.519999999999999
1 -> 2,6.874431000000004,6.874430999999999,6.874431000000001,6.874431000000001,6.874430999999999,2.6645352591003757e-15,0.0,93.0,93.0,93.0,93.0,93.0,0.0,0.0,36.05000000000001,36.04999999999999,36.050000000000004,36.050000000000004,36.05000000000001,9.39959687352353e-15,-2.3684757858670005e-15,-61.85,-76.22,-71.2125,-73.39,-76.22,5.709099644427305,4.519999999999999
1 -> 2,6.874431000000004,6.874430999999999,6.874431000000001,6.874431000000001,6.874430999999999,2.6645352591003757e-15,0.0,93.0,93.0,93.0,93.0,93.0,0.0,0.0,36.05000000000001,36.04999999999999,36.050000000000004,36.050000000000004,36.05000000000001,9.39959687352353e-15,-2.3684757858670005e-15,-25.34,-50.06,-36.1425,-34.585,-50.06,9.371265589556195,8.24
1 -> 2,6.874431000000004,6.874430999999999,6.874431000000001,6.874431000000001,6.874430999999999,2.6645352591003757e-15,0.0,93.0,93.0,93.0,93.0,93.0,0.0,0.0,36.05000000000001,36.04999999999999,36.050000000000004,36.050000000000004,36.05000000000001,9.39959687352353e-15,-2.3684757858670005e-15,-25.34,-50.06,-36.1425,-34.585,-50.06,9.371265589556195,8.24
1 -> 2,6.874431000000004,6.874430999999999,6.874431000000001,6.874431000000001,6.874430999999999,2.6645352591003757e-15,0.0,93.0,93.0,93.0,93.0,93.0,0.0,0.0,36.05000000000001,36.04999999999999,36.050000000000004,36.050000000000004,36.05000000000001,9.39959687352353e-15,-2.3684757858670005e-15,-22.89,-24.85,-23.6075,-23.345,-24.85,0.7447272990833632,-0.5366666666666676
1 -> 2,6.874431000000004,6.874430999999999,6.874431000000001,6.874431000000001,6.874430999999999,2.6645352591003757e-15,0.0,93.0,93.0,93.0,93.0,93.0,0.0,0.0,36.05000000000001,36.04999999999999,36.050000000000004,36.050000000000004,36.05000000000001,9.39959687352353e-15,-2.3684757858670005e-15,-22.89,-24.85,-23.6075,-23.345,-24.85,0.7447272990833632,-0.5366666666666676
1 -> 2,6.844985000000004,6.844984999999998,6.844985000000001,6.844985000000001,6.844985000000004,2.912087692897636e-15,-2.9605947323337506e-16,93.0,93.0,93.0,93.0,93.0,0.0,0.0,36.05000000000001,36.04999999999999,36.050000000000004,36.050000000000004,36.05000000000001,9.39959687352353e-15,-2.3684757858670005e-15,-27.47,-40.02,-33.7725,-33.8,-40.02,4.7356487148013855,-4.1833333333333345
1 -> 2,6.844985000000004,6.844984999999998,6.844985000000001,6.844985000000001,6.844985000000004,2.912087692897636e-15,-2.9605947323337506e-16,93.0,93.0,93.0,93.0,93.0,0.0,0.0,36.05000000000001,36.04999999999999,36.050000000000004,36.050000000000004,36.05000000000001,9.39959687352353e-15,-2.3684757858670005e-15,-27.47,-40.02,-33.7725,-33.8,-40.02,4.7356487148013855,-4.1833333333333345
1 -> 2,6.844985000000004,6.844984999999998,6.844985000000001,6.844985000000001,6.844985000000004,2.912087692897636e-15,-2.9605947323337506e-16,93.0,93.0,93.0,93.0,93.0,0.0,0.0,36.05000000000001,36.04999999999999,36.050000000000004,36.050000000000004,36.05000000000001,9.39959687352353e-15,-2.3684757858670005e-15,-26.34,-41.43,-35.2325,-36.58,-41.43,5.833786827610347,5.03
1 -> 2,6.844985000000004,6.844984999999998,6.844985000000001,6.844985000000001,6.844985000000004,2.912087692897636e-15,-2.9605947323337506e-16,93.0,93.0,93.0,93.0,93.0,0.0,0.0,36.05000000000001,36.04999999999999,36.050000000000004,36.050000000000004,36.05000000000001,9.39959687352353e-15,-2.3684757858670005e-15,-26.34,-41.43,-35.2325,-36.58,-41.43,5.833786827610347,5.03
1 -> 2,6.844985000000004,6.844984999999998,6.844985000000001,6.844985000000001,6.844985000000004,2.912087692897636e-15,-2.9605947323337506e-16,93.0,93.0,93.0,93.0,93.0,0.0,0.0,36.05000000000001,36.04999999999999,36.050000000000004,36.050000000000004,36.05000000000001,9.39959687352353e-15,-2.3684757858670005e-15,-3.89,-18.67,-10.615,-9.95,-18.67,5.521419654400487,4.926666666666668
1 -> 2,6.844985000000004,6.844984999999998,6.844985000000001,6.844985000000001,6.844985000000004,2.912087692897636e-15,-2.9605947323337506e-16,93.0,93.0,93.0,93.0,93.0,0.0,0.0,36.05000000000001,36.04999999999999,36.050000000000004,36.050000000000004,36.05000000000001,9.39959687352353e-15,-2.3684757858670005e-15,-3.89,-18.67,-10.615,-9.95,-18.67,5.521419654400487,4.926666666666668
1 -> 2,6.844985000000004,6.844984999999998,6.844985000000001,6.844985000000001,6.844985000000004,2.912087692897636e-15,-2.9605947323337506e-16,93.0,93.0,93.0,93.0,93.0,0.0,0.0,36.05000000000001,36.04999999999999,36.050000000000004,36.050000000000004,36.05000000000001,9.39959687352353e-15,-2.3684757858670005e-15,20.4,0.14,9.6625,9.055,0.14,7.603947576752485,6.753333333333333
1 -> 2,6.844985000000004,6.844984999999998,6.844985000000001,6.844985000000001,6.844985000000004,2.912087692897636e-15,-2.9605947323337506e-16,93.0,93.0,93.0,93.0,93.0,0.0,0.0,36.05000000000001,36.04999999999999,36.050000000000004,36.050000000000004,36.05000000000001,9.39959687352353e-15,-2.3684757858670005e-15,20.4,0.14,9.6625,9.055,0.14,7.603947576752485,6.753333333333333
1 -> 2,6.841145000000004,6.841144999999997,6.841145000000001,6.841145000000001,6.841145000000004,2.737549743767154e-15,5.921189464667501e-16,92.0,92.0,92.0,92.0,92.0,0.0,0.0,36.070000000000014,36.07,36.07000000000001,36.07000000000001,36.070000000000014,6.153480596427404e-15,2.3684757858670005e-15,38.81,27.77,34.2825,35.275000000000006,27.77,4.220588673396166,3.680000000000001
1 -> 2,6.841145000000004,6.841144999999997,6.841145000000001,6.841145000000001,6.841145000000004,2.737549743767154e-15,5.921189464667501e-16,92.0,92.0,92.0,92.0,92.0,0.0,0.0,36.070000000000014,36.07,36.07000000000001,36.07000000000001,36.070000000000014,6.153480596427404e-15,2.3684757858670005e-15,38.81,27.77,34.2825,35.275000000000006,27.77,4.220588673396166,3.680000000000001
1 -> 2,6.841145000000004,6.841144999999997,6.841145000000001,6.841145000000001,6.841145000000004,2.737549743767154e-15,5.921189464667501e-16,92.0,92.0,92.0,92.0,92.0,0.0,0.0,36.070000000000014,36.07,36.07000000000001,36.07000000000001,36.070000000000014,6.153480596427404e-15,2.3684757858670005e-15,42.58,39.59,40.945,40.805,39.59,1.1291257680170068,0.9966666666666649
1 -> 2,6.841145000000004,6.841144999999997,6.841145000000001,6.841145000000001,6.841145000000004,2.737549743767154e-15,5.921189464667501e-16,92.0,92.0,92.0,92.0,92.0,0.0,0.0,36.070000000000014,36.07,36.07000000000001,36.07000000000001,36.070000000000014,6.153480596427404e-15,2.3684757858670005e-15,42.58,39.59,40.945,40.805,39.59,1.1291257680170068,0.9966666666666649
1 -> 2,6.841145000000004,6.841144999999997,6.841145000000001,6.841145000000001,6.841145000000004,2.737549743767154e-15,5.921189464667501e-16,92.0,92.0,92.0,92.0,92.0,0.0,0.0,36.070000000000014,36.07,36.07000000000001,36.07000000000001,36.070000000000014,6.153480596427404e-15,2.3684757858670005e-15,43.45,39.03,41.8875,42.535,39.03,1.773786557058092,-1.4733333333333338
1 -> 2,6.841145000000004,6.841144999999997,6.841145000000001,6.841145000000001,6.841145000000004,2.737549743767154e-15,5.921189464667501e-16,92.0,92.0,92.0,92.0,92.0,0.0,0.0,36.070000000000014,36.07,36.07000000000001,36.07000000000001,36.070000000000014,6.153480596427404e-15,2.3684757858670005e-15,43.45,39.03,41.8875,42.535,39.03,1.773786557058092,-1.4733333333333338
1 -> 2,6.841145000000004,6.841144999999997,6.841145000000001,6.841145000000001,6.841145000000004,2.737549743767154e-15,5.921189464667501e-16,92.0,92.0,92.0,92.0,92.0,0.0,0.0,36.070000000000014,36.07,36.07000000000001,36.07000000000001,36.070000000000014,6.153480596427404e-15,2.3684757858670005e-15,35.53,24.87,30.1,30.0,24.87,3.976996354034034,-3.5533333333333332
1 -> 2,6.841145000000004,6.841144999999997,6.841145000000001,6.841145000000001,6.841145000000004,2.737549743767154e-15,5.921189464667501e-16,92.0,92.0,92.0,92.0,92.0,0.0,0.0,36.070000000000014,36.07,36.07000000000001,36.07000000000001,36.070000000000014,6.153480596427404e-15,2.3684757858670005e-15,35.53,24.87,30.1,30.0,24.87,3.976996354034034,-3.5533333333333332
1 -> 2,6.8091380000000035,6.809137999999998,6.809138000000001,6.809138000000001,6.8091380000000035,2.4725840765205216e-15,2.9605947323337506e-16,92.0,92.0,92.0,92.0,92.0,0.0,0.0,36.070000000000014,36.07,36.07000000000001,36.07000000000001,36.070000000000014,6.153480596427404e-15,2.3684757858670005e-15,21.71,12.77,17.16,17.080000000000002,12.77,3.339468520588269,-2.9800000000000004
1 -> 2,6.8091380000000035,6.809137999999998,6.809138000000001,6.809138000000001,6.8091380000000035,2.4725840765205216e-15,2.9605947323337506e-16,92.0,92.0,92.0,92.0,92.0,0.0,0.0,36.070000000000014,36.07,36.07000000000001,36.07000000000001,36.070000000000014,6.153480596427404e-15,2.3684757858670005e-15,21.71,12.77,17.16,17.080000000000002,12.77,3.339468520588269,-2.9800000000000004
1 -> 2,6.8091380000000035,6.809137999999998,6.809138000000001,6.809138000000001,6.8091380000000035,2.4725840765205216e-15,2.9605947323337506e-16,92.0,92.0,92.0,92.0,92.0,0.0,0.0,36.070000000000014,36.07,36.07000000000001,36.07000000000001,36.070000000000014,6.153480596427404e-15,2.3684757858670005e-15,10.42,5.91,8.05,7.9350000000000005,5.91,1.6724981315385676,-1.5033333333333332
1 -> 2,6.8091380000000035,6.809137999999998,6.809138000000001,6.809138000000001,6.8091380000000035,2.4725840765205216e-15,2.9605947323337506e-16,92.0,92.0,92.0,92.0,92.0,0.0,0.0,36.070000000000014,36.07,36.07000000000001,36.07000000000001,36.070000000000014,6.153480596427404e-15,2.3684757858670005e-15,10.42,5.91,8.05,7.9350000000000005,5.91,1.6724981315385676,-1.5033333333333332
1 -> 2,6.8091380000000035,6.809137999999998,6.809138000000001,6.809138000000001,6.8091380000000035,2.4725840765205216e-15,2.9605947323337506e-16,92.0,92.0,92.0,92.0,92.0,0.0,0.0,36.070000000000014,36.07,36.07000000000001,36.07000000000001,36.070000000000014,6.153480596427404e-15,2.3684757858670005e-15,4.24,-4.8,0.0475000000000001,0.375,-4.8,3.3912488481383964,-3.013333333333333
1 -> 2,6.8091380000000035,6.809137999999998,6.809138000000001,6.809138000000001,6.8091380000000035,2.4725840765205216e-15,2.9605947323337506e-16,92.0,92.0,92.0,92.0,92.0,0.0,0.0,36.070000000000014,36.07,36.07000000000001,36.07000000000001,36.070000000000014,6.153480596427404e-15,2.3684757858670005e-15,4.24,-4.8,0.0475000000000001,0.375,-4.8,3.3912488481383964,-3.013333333333333
1 -> 2,6.8091380000000035,6.809137999999998,6.809138000000001,6.809138000000001,6.8091380000000035,2.4725840765205216e-15,2.9605947323337506e-16,92.0,92.0,92.0,92.0,92.0,0.0,0.0,36.070000000000014,36.07,36.07000000000001,36.07000000000001,36.070000000000014,6.153480596427404e-15,2.3684757858670005e-15,-8.62,-16.46,-13.01,-13.48,-16.46,2.9713464961192266,-2.6133333333333337
1 -> 2,6.8091380000000035,6.809137999999998,6.809138000000001,6.809138000000001,6.8091380000000035,2.4725840765205216e-15,2.9605947323337506e-16,92.0,92.0,92.0,92.0,92.0,0.0,0.0,36.070000000000014,36.07,36.07000000000001,36.07000000000001,36.070000000000014,6.153480596427404e-15,2.3684757858670005e-15,-8.62,-16.46,-13.01,-13.48,-16.46,2.9713464961192266,-2.6133333333333337
1 -> 2,6.768170000000003,6.768169999999997,6.76817,6.7681700000000005,6.768170000000003,2.9790409838967277e-15,2.9605947323337506e-16,92.0,92.0,92.0,92.0,92.0,0.0,0.0,36.070000000000014,36.07,36.07000000000001,36.07000000000001,36.070000000000014,6.153480596427404e-15,2.3684757858670005e-15,-12.27,-16.88,-14.965,-15.355,-16.88,1.7722090734447786,1.5366666666666664
1 -> 2,6.768170000000003,6.768169999999997,6.76817,6.7681700000000005,6.768170000000003,2.9790409838967277e-15,2.9605947323337506e-16,92.0,92.0,92.0,92.0,92.0,0.0,0.0,36.070000000000014,36.07,36.07000000000001,36.07000000000001,36.070000000000014,6.153480596427404e-15,2.3684757858670005e-15,-12.27,-16.88,-14.965,-15.355,-16.88,1.7722090734447786,1.5366666666666664
1 -> 2,6.768170000000003,6.768169999999997,6.76817,6.7681700000000005,6.768170000000003,2.9790409838967277e-15,2.9605947323337506e-16,92.0,92.0,92.0,92.0,92.0,0.0,0.0,36.070000000000014,36.07,36.07000000000001,36.07000000000001,36.070000000000014,6.153480596427404e-15,2.3684757858670005e-15,-0.16,-9.55,-4.897500000000001,-4.94,-9.55,3.5053343278494853,3.1300000000000003
1 -> 2,6.768170000000003,6.768169999999997,6.76817,6.7681700000000005,6.768170000000003,2.9790409838967277e-15,2.9605947323337506e-16,92.0,92.0,92.0,92.0,92.0,0.0,0.0,36.070000000000014,36.07,36.07000000000001,36.07000000000001,36.070000000000014,6.153480596427404e-15,2.3684757858670005e-15,-0.16,-9.55,-4.897500000000001,-4.94,-9.55,3.5053343278494853,3.1300000000000003
1 -> 2,6.768170000000003,6.768169999999997,6.76817,6.7681700000000005,6.768170000000003,2.9790409838967277e-15,2.9605947323337506e-16,92.0,92.0,92.0,92.0,92.0,0.0,0.0,36.070000000000014,36.07,36.07000000000001,36.07000000000001,36.070000000000014,6.153480596427404e-15,2.3684757858670005e-15,8.79,2.81,6.074999999999999,6.35,2.81,2.2440421119043195,1.993333333333333
1 -> 2,6.768170000000003,6.768169999999997,6.76817,6.7681700000000005,6.768170000000003,2.9790409838967277e-15,2.9605947323337506e-16,92.0,92.0,92.0,92.0,92.0,0.0,0.0,36.070000000000014,36.07,36.07000000000001,36.07000000000001,36.070000000000014,6.153480596427404e-15,2.3684757858670005e-15,8.79,2.81,6.074999999999999,6.35,2.81,2.2440421119043195,1.993333333333333
1 -> 2,6.768170000000003,6.768169999999997,6.76817,6.7681700000000005,6.768170000000003,2.9790409838967277e-15,2.9605947323337506e-16,92.0,92.0,92.0,92.0,92.0,0.0,0.0,36.070000000000014,36.07,36.07000000000001,36.07000000000001,36.070000000000014,6.153480596427404e-15,2.3684757858670005e-15,13.07,9.9,11.4625,11.440000000000001,9.9,1.1819766283645374,1.0566666666666666
1 -> 2,6.768170000000003,6.768169999999997,6.76817,6.7681700000000005,6.768170000000003,2.9790409838967277e-15,2.9605947323337506e-16,92.0,92.0,92.0,92.0,92.0,0.0,0.0,36.070000000000014,36.07,36.07000000000001,36.07000000000001,36.070000000000014,6.153480596427404e-15,2.3684757858670005e-15,13.07,9.9,11.4625,11.440000000000001,9.9,1.1819766283645374,1.0566666666666666
1 -> 2,6.754087000000004,6.754086999999996,6.754086999999999,6.754087,6.754087000000004,3.845925372767128e-15,-2.9605947323337506e-16,92.0,92.0,92.0,92.0,92.0,0.0,0.0,36.070000000000014,36.07,36.07000000000001,36.07000000000001,36.070000000000014,6.153480596427404e-15,2.3684757858670005e-15,15.88,14.11,15.105,15.215,14.11,0.6665770773136447,0.5900000000000004
1 -> 2,6.754087000000004,6.754086999999996,6.754086999999999,6.754087,6.754087000000004,3.845925372767128e-15,-2.9605947323337506e-16,92.0,92.0,92.0,92.0,92.0,0.0,0.0,36.070000000000014,36.07,36.07000000000001,36.07000000000001,36.070000000000014,6.153480596427404e-15,2.3684757858670005e-15,15.88,14.11,15.105,15.215,14.11,0.6665770773136447,0.5900000000000004
1 -> 2,6.754087000000004,6.754086999999996,6.754086999999999,6.754087,6.754087000000004,3.845925372767128e-15,-2.9605947323337506e-16,92.0,92.0,92.0,92.0,92.0,0.0,0.0,36.070000000000014,36.07,36.07000000000001,36.07000000000001,36.070000000000014,6.153480596427404e-15,2.3684757858670005e-15,16.87,16.2,16.602500000000003,16.67,16.2,0.26545950726994144,0.2233333333333339
1 -> 2,6.754087000000004,6.754086999999996,6.754086999999999,6.754087,6.754087000000004,3.845925372767128e-15,-2.9605947323337506e-16,92.0,92.0,92.0,92.0,92.0,0.0,0.0,36.070000000000014,36.07,36.07000000000001,36.07000000000001,36.070000000000014,6.153480596427404e-15,2.3684757858670005e-15,16.87,16.2,16.602500000000003,16.67,16.2,0.26545950726994144,0.2233333333333339
1 -> 2,6.754087000000004,6.754086999999996,6.754086999999999,6.754087,6.754087000000004,3.845925372767128e-15,-2.9605947323337506e-16,92.0,92.0,92.0,92.0,92.0,0.0,0.0,36.070000000000014,36.07,36.07000000000001,36.07000000000001,36.070000000000014,6.153480596427404e-15,2.3684757858670005e-15,16.54,12.97,14.9325,15.11,12.97,1.3478941909512032,-1.1899999999999995
1 -> 2,6.754087000000004,6.754086999999996,6.754086999999999,6.754087,6.754087000000004,3.845925372767128e-15,-2.9605947323337506e-16,92.0,92.0,92.0,92.0,92.0,0.0,0.0,36.070000000000014,36.07,36.07000000000001,36.07000000000001,36.070000000000014,6.153480596427404e-15,2.3684757858670005e-15,16.54,12.97,14.9325,15.11,12.97,1.3478941909512032,-1.1899999999999995
1 -> 2,6.754087000000004,6.754086999999996,6.754086999999999,6.754087,6.754087000000004,3.845925372767128e-15,-2.9605947323337506e-16,92.0,92.0,92.0,92.0,92.0,0.0,0.0,36.070000000000014,36.07,36.07000000000001,36.07000000000001,36.070000000000014,6.153480596427404e-15,2.3684757858670005e-15,11.34,6.73,8.9925,8.95,6.73,1.71894407995141,-1.5366666666666664
1 -> 2,6.754087000000004,6.754086999999996,6.754086999999999,6.754087,6.754087000000004,3.845925372767128e-15,-2.9605947323337506e-16,92.0,92.0,92.0,92.0,92.0,0.0,0.0,36.070000000000014,36.07,36.07000000000001,36.07000000000001,36.070000000000014,6.153480596427404e-15,2.3684757858670005e-15,11.34,6.73,8.9925,8.95,6.73,1.71894407995141,-1.5366666666666664
1 -> 2,6.750247000000003,6.750246999999998,6.750247000000002,6.750247000000002,6.750247000000003,2.3498992183808826e-15,5.921189464667501e-16,85.67,85.67,85.67,85.67,85.67,0.0,0.0,36.05000000000001,36.04999999999999,36.050000000000004,36.050000000000004,36.05000000000001,9.39959687352353e-15,-2.3684757858670005e-15,5.4,2.37,3.8000000000000007,3.715,2.37,1.1324089367361951,-1.01
1 -> 2,6.750247000000003,6.750246999999998,6.750247000000002,6.750247000000002,6.750247000000003,2.3498992183808826e-15,5.921189464667501e-16,85.67,85.67,85.67,85.67,85.67,0.0,0.0,36.05000000000001,36.04999999999999,36.050000000000004,36.050000000000004,36.05000000000001,9.39959687352353e-15,-2.3684757858670005e-15,5.4,2.37,3.8000000000000007,3.715,2.37,1.1324089367361951,-1.01
1 -> 2,6.750247000000003,6.750246999999998,6.750247000000002,6.750247000000002,6.750247000000003,2.3498992183808826e-15,5.921189464667501e-16,85.67,85.67,85.67,85.67,85.67,0.0,0.0,36.05000000000001,36.04999999999999,36.050000000000004,36.050000000000004,36.05000000000001,9.39959687352353e-15,-2.3684757858670005e-15,1.58,-2.26,-0.1349999999999999,0.07,-2.26,1.4391924819147714,-1.28
1 -> 2,6.750247000000003,6.750246999999998,6.750247000000002,6.750247000000002,6.750247000000003,2.3498992183808826e-15,5.921189464667501e-16,85.67,85.67,85.67,85.67,85.67,0.0,0.0,36.05000000000001,36.04999999999999,36.050000000000004,36.050000000000004,36.05000000000001,9.39959687352353e-15,-2.3684757858670005e-15,1.58,-2.26,-0.1349999999999999,0.07,-2.26,1.4391924819147714,-1.28
1 -> 2,6.750247000000003,6.750246999999998,6.750247000000002,6.750247000000002,6.750247000000003,2.3498992183808826e-15,5.921189464667501e-16,85.67,85.67,85.67,85.67,85.67,0.0,0.0,36.05000000000001,36.04999999999999,36.050000000000004,36.050000000000004,36.05000000000001,9.39959687352353e-15,-2.3684757858670005e-15,-4.46,-10.86,-7.8774999999999995,-8.095,-10.86,2.415433449714564,-2.1333333333333333
1 -> 2,6.750247000000003,6.750246999999998,6.750247000000002,6.750247000000002,6.750247000000003,2.3498992183808826e-15,5.921189464667501e-16,85.67,85.67,85.67,85.67,85.67,0.0,0.0,36.05000000000001,36.04999999999999,36.050000000000004,36.050000000000004,36.05000000000001,9.39959687352353e-15,-2.3684757858670005e-15,-4.46,-10.86,-7.8774999999999995,-8.095,-10.86,2.415433449714564,-2.1333333333333333
1 -> 2,6.750247000000003,6.750246999999998,6.750247000000002,6.750247000000002,6.750247000000003,2.3498992183808826e-15,5.921189464667501e-16,85.67,85.67,85.67,85.67,85.67,0.0,0.0,36.05000000000001,36.04999999999999,36.050000000000004,36.050000000000004,36.05000000000001,9.39959687352353e-15,-2.3684757858670005e-15,-4.22,-11.28,-8.385,-9.02,-11.28,2.7184784347130657,2.353333333333333
1 -> 2,6.750247000000003,6.750246999999998,6.750247000000002,6.750247000000002,6.750247000000003,2.3498992183808826e-15,5.921189464667501e-16,85.67,85.67,85.67,85.67,85.67,0.0,0.0,36.05000000000001,36.04999999999999,36.050000000000004,36.050000000000004,36.05000000000001,9.39959687352353e-15,-2.3684757858670005e-15,-4.22,-11.28,-8.385,-9.02,-11.28,2.7184784347130657,2.353333333333333
1 -> 2,6.750247000000003,6.750246999999998,6.750247000000002,6.750247000000002,6.750247000000003,2.3498992183808826e-15,5.921189464667501e-16,85.67,85.67,85.67,85.67,85.67,0.0,0.0,36.05000000000001,36.04999999999999,36.050000000000004,36.050000000000004,36.05000000000001,9.39959687352353e-15,-2.3684757858670005e-15,11.51,0.03,6.08,6.390000000000001,0.03,4.306965288924442,3.8266666666666667
1 -> 2,6.750247000000003,6.750246999999998,6.750247000000002,6.750247000000002,6.750247000000003,2.3498992183808826e-15,5.921189464667501e-16,85.67,85.67,85.67,85.67,85.67,0.0,0.0,36.05000000000001,36.04999999999999,36.050000000000004,36.050000000000004,36.05000000000001,9.39959687352353e-15,-2.3684757858670005e-15,11.51,0.03,6.08,6.390000000000001,0.03,4.306965288924442,3.8266666666666667
1 -> 2,6.750247000000003,6.750246999999998,6.750247000000002,6.750247000000002,6.750247000000003,2.3498992183808826e-15,5.921189464667501e-16,85.67,85.67,85.67,85.67,85.67,0.0,0.0,36.05000000000001,36.04999999999999,36.050000000000004,36.050000000000004,36.05000000000001,9.39959687352353e-15,-2.3684757858670005e-15,13.93,11.3,12.942499999999999,13.27,11.3,0.9907919811948417,-0.7033333333333331
1 -> 2,6.750247000000003,6.750246999999998,6.750247000000002,6.750247000000002,6.750247000000003,2.3498992183808826e-15,5.921189464667501e-16,85.67,85.67,85.67,85.67,85.67,0.0,0.0,36.05000000000001,36.04999999999999,36.050000000000004,36.050000000000004,36.05000000000001,9.39959687352353e-15,-2.3684757858670005e-15,13.93,11.3,12.942499999999999,13.27,11.3,0.9907919811948417,-0.7033333333333331
1 -> 2,6.750247000000003,6.750246999999998,6.750247000000002,6.750247000000002,6.750247000000003,2.3498992183808826e-15,5.921189464667501e-16,85.67,85.67,85.67,85.67,85.67,0.0,0.0,36.05000000000001,36.04999999999999,36.050000000000004,36.050000000000004,36.05000000000001,9.39959687352353e-15,-2.3684757858670005e-15,8.86,0.96,4.89,4.87,0.96,2.947219028168758,-2.6333333333333333
1 -> 2,6.750247000000003,6.750246999999998,6.750247000000002,6.750247000000002,6.750247000000003,2.3498992183808826e-15,5.921189464667501e-16,85.67,85.67,85.67,85.67,85.67,0.0,0.0,36.05000000000001,36.04999999999999,36.050000000000004,36.050000000000004,36.05000000000001,9.39959687352353e-15,-2.3684757858670005e-15,8.86,0.96,4.89,4.87,0.96,2.947219028168758,-2.6333333333333333
1 -> 2,6.750247000000003,6.750246999999998,6.750247000000002,6.750247000000002,6.750247000000003,2.3498992183808826e-15,5.921189464667501e-16,85.67,85.67,85.67,85.67,85.67,0.0,0.0,36.05000000000001,36.04999999999999,36.050000000000004,36.050000000000004,36.05000000000001,9.39959687352353e-15,-2.3684757858670005e-15,-1.56,-7.8,-4.8625,-5.045,-7.8,2.3405808573941638,-2.08
1 -> 2,6.750247000000003,6.750246999999998,6.750247000000002,6.750247000000002,6.750247000000003,2.3498992183808826e-15,5.921189464667501e-16,85.67,85.67,85.67,85.67,85.67,0.0,0.0,36.05000000000001,36.04999999999999,36.050000000000004,36.050000000000004,36.05000000000001,9.39959687352353e-15,-2.3684757858670005e-15,-1.56,-7.8,-4.8625,-5.045,-7.8,2.3405808573941638,-2.08
1 -> 2,6.789935000000003,6.789934999999996,6.789935,6.789935,6.789934999999996,3.552713678800501e-15,0.0,85.67,85.67,85.67,85.67,85.67,0.0,0.0,36.05000000000001,36.04999999999999,36.050000000000004,36.050000000000004,36.05000000000001,9.39959687352353e-15,-2.3684757858670005e-15,-8.85,-9.91,-9.434999999999999,-9.489999999999998,-9.91,0.3881687777243297,-0.3533333333333335
1 -> 2,6.789935000000003,6.789934999999996,6.789935,6.789935,6.789934999999996,3.552713678800501e-15,0.0,85.67,85.67,85.67,85.67,85.67,0.0,0.0,36.05000000000001,36.04999999999999,36.050000000000004,36.050000000000004,36.05000000000001,9.39959687352353e-15,-2.3684757858670005e-15,-8.85,-9.91,-9.434999999999999,-9.489999999999998,-9.91,0.3881687777243297,-0.3533333333333335
1 -> 2,6.789935000000003,6.789934999999996,6.789935,6.789935,6.789934999999996,3.552713678800501e-15,0.0,85.67,85.67,85.67,85.67,85.67,0.0,0.0,36.05000000000001,36.04999999999999,36.050000000000004,36.050000000000004,36.05000000000001,9.39959687352353e-15,-2.3684757858670005e-15,-10.5,-13.77,-12.0625,-11.99,-13.77,1.2265067264389544,-1.0899999999999999
1 -> 2,6.789935000000003,6.789934999999996,6.789935,6.789935,6.789934999999996,3.552713678800501e-15,0.0,85.67,85.67,85.67,85.67,85.67,0.0,0.0,36.05000000000001,36.04999999999999,36.050000000000004,36.050000000000004,36.05000000000001,9.39959687352353e-15,-2.3684757858670005e-15,-10.5,-13.77,-12.0625,-11.99,-13.77,1.2265067264389544,-1.0899999999999999
1 -> 2,6.789935000000003,6.789934999999996,6.789935,6.789935,6.789934999999996,3.552713678800501e-15,0.0,85.67,85.67,85.67,85.67,85.67,0.0,0.0,36.05000000000001,36.04999999999999,36.050000000000004,36.050000000000004,36.05000000000001,9.39959687352353e-15,-2.3684757858670005e-15,-15.0,-19.2,-17.0275,-16.955,-19.2,1.565812488773799,-1.3999999999999997
1 -> 2,6.789935000000003,6.789934999999996,6.789935,6.789935,6.789934999999996,3.552713678800501e-15,0.0,85.67,85.67,85.67,85.67,85.67,0.0,0.0,36.05000000000001,36.04999999999999,36.050000000000004,36.050000000000004,36.05000000000001,9.39959687352353e-15,-2.3684757858670005e-15,-15.0,-19.2,-17.0275,-16.955,-19.2,1.565812488773799,-1.3999999999999997
1 -> 2,6.789935000000003,6.789934999999996,6.789935,6.789935,6.789934999999996,3.552713678800501e-15,0.0,85.67,85.67,85.67,85.67,85.67,0.0,0.0,36.05000000000001,36.04999999999999,36.050000000000004,36.050000000000004,36.05000000000001,9.39959687352353e-15,-2.3684757858670005e-15,-20.8,-24.67,-22.852500000000003,-22.97,-24.67,1.4481604710804674,-1.2900000000000003
1 -> 2,6.789935000000003,6.789934999999996,6.789935,6.789935,6.789934999999996,3.552713678800501e-15,0.0,85.67,85.67,85.67,85.67,85.67,0.0,0.0,36.05000000000001,36.04999999999999,36.050000000000004,36.050000000000004,36.05000000000001,9.39959687352353e-15,-2.3684757858670005e-15,-20.8,-24.67,-22.852500000000003,-22.97,-24.67,1.4481604710804674,-1.2900000000000003
1 -> 2,6.888514000000003,6.888513999999997,6.888514000000001,6.888514000000001,6.888514000000003,2.737549743767154e-15,5.921189464667501e-16,85.67,85.67,85.67,85.67,85.67,0.0,0.0,36.05000000000001,36.04999999999999,36.050000000000004,36.050000000000004,36.05000000000001,9.39959687352353e-15,-2.3684757858670005e-15,-25.58,-28.79,-27.115000000000002,-27.045,-28.79,1.1983426054346893,-1.0700000000000003
1 -> 2,6.888514000000003,6.888513999999997,6.888514000000001,6.888514000000001,6.888514000000003,2.737549743767154e-15,5.921189464667501e-16,85.67,85.67,85.67,85.67,85.67,0.0,0.0,36.05000000000001,36.04999999999999,36.050000000000004,36.050000000000004,36.05000000000001,9.39959687352353e-15,-2.3684757858670005e-15,-25.58,-28.79,-27.115000000000002,-27.045,-28.79,1.1983426054346893,-1.0700000000000003
1 -> 2,6.888514000000003,6.888513999999997,6.888514000000001,6.888514000000001,6.888514000000003,2.737549743767154e-15,5.921189464667501e-16,85.67,85.67,85.67,85.67,85.67,0.0,0.0,36.05000000000001,36.04999999999999,36.050000000000004,36.050000000000004,36.05000000000001,9.39959687352353e-15,-2.3684757858670005e-15,-28.68,-30.56,-29.8575,-30.095,-30.56,0.7178570540156306,0.41000000000000014
1 -> 2,6.888514000000003,6.888513999999997,6.888514000000001,6.888514000000001,6.888514000000003,2.737549743767154e-15,5.921189464667501e-16,85.67,85.67,85.67,85.67,85.67,0.0,0.0,36.05000000000001,36.04999999999999,36.050000000000004,36.050000000000004,36.05000000000001,9.39959687352353e-15,-2.3684757858670005e-15,-28.68,-30.56,-29.8575,-30.095,-30.56,0.7178570540156306,0.41000000000000014
1 -> 2,6.888514000000003,6.888513999999997,6.888514000000001,6.888514000000001,6.888514000000003,2.737549743767154e-15,5.921189464667501e-16,85.67,85.67,85.67,85.67,85.67,0.0,0.0,36.05000000000001,36.04999999999999,36.050000000000004,36.050000000000004,36.05000000000001,9.39959687352353e-15,-2.3684757858670005e-15,-9.76,-25.54,-17.9525,-18.255,-25.54,5.914817727538186,5.26
1 -> 2,6.888514000000003,6.888513999999997,6.888514000000001,6.888514000000001,6.888514000000003,2.737549743767154e-15,5.921189464667501e-16,85.67,85.67,85.67,85.67,85.67,0.0,0.0,36.05000000000001,36.04999999999999,36.050000000000004,36.050000000000004,36.05000000000001,9.39959687352353e-15,-2.3684757858670005e-15,-9.76,-25.54,-17.9525,-18.255,-25.54,5.914817727538186,5.26
1 -> 2,6.888514000000003,6.888513999999997,6.888514000000001,6.888514000000001,6.888514000000003,2.737549743767154e-15,5.921189464667501e-16,85.67,85.67,85.67,85.67,85.67,0.0,0.0,36.05000000000001,36.04999999999999,36.050000000000004,36.050000000000004,36.05000000000001,9.39959687352353e-15,-2.3684757858670005e-15,5.44,-4.44,1.0274999999999999,1.5550000000000002,-4.44,3.7148847559513882,3.2933333333333334
1 -> 2,6.888514000000003,6.888513999999997,6.888514000000001,6.888514000000001,6.888514000000003,2.737549743767154e-15,5.921189464667501e-16,85.67,85.67,85.67,85.67,85.67,0.0,0.0,36.05000000000001,36.04999999999999,36.050000000000004,36.050000000000004,36.05000000000001,9.39959687352353e-15,-2.3684757858670005e-15,5.44,-4.44,1.0274999999999999,1.5550000000000002,-4.44,3.7148847559513882,3.2933333333333334
1 -> 2,6.983253000000004,6.983252999999998,6.983253000000001,6.983253000000001,6.983253000000004,2.912087692897636e-15,2.9605947323337506e-16,86.75,86.75,86.75,86.75,86.75,0.0,0.0,36.05000000000001,36.04999999999999,36.050000000000004,36.050000000000004,36.05000000000001,9.39959687352353e-15,-2.3684757858670005e-15,9.5,6.98,8.370000000000001,8.5,6.98,0.9481033698917011,0.8399999999999999
1 -> 2,6.983253000000004,6.983252999999998,6.983253000000001,6.983253000000001,6.983253000000004,2.912087692897636e-15,2.9605947323337506e-16,86.75,86.75,86.75,86.75,86.75,0.0,0.0,36.05000000000001,36.04999999999999,36.050000000000004,36.050000000000004,36.05000000000001,9.39959687352353e-15,-2.3684757858670005e-15,9.5,6.98,8.370000000000001,8.5,6.98,0.9481033698917011,0.8399999999999999
1 -> 2,6.983253000000004,6.983252999999998,6.983253000000001,6.983253000000001,6.983253000000004,2.912087692897636e-15,2.9605947323337506e-16,86.75,86.75,86.75,86.75,86.75,0.0,0.0,36.05000000000001,36.04999999999999,36.050000000000004,36.050000000000004,36.05000000000001,9.39959687352353e-15,-2.3684757858670005e-15,9.78,8.91,9.4725,9.6,8.91,0.351665679303511,-0.28999999999999976
1 -> 2,6.983253000000004,6.983252999999998,6.983253000000001,6.983253000000001,6.983253000000004,2.912087692897636e-15,2.9605947323337506e-16,86.75,86.75,86.75,86.75,86.75,0.0,0.0,36.05000000000001,36.04999999999999,36.050000000000004,36.050000000000004,36.05000000000001,9.39959687352353e-15,-2.3684757858670005e-15,9.78,8.91,9.4725,9.6,8.91,0.351665679303511,-0.28999999999999976
1 -> 2,6.983253000000004,6.983252999999998,6.983253000000001,6.983253000000001,6.983253000000004,2.912087692897636e-15,2.9605947323337506e-16,86.75,86.75,86.75,86.75,86.75,0.0,0.0,36.05000000000001,36.04999999999999,36.050000000000004,36.050000000000004,36.05000000000001,9.39959687352353e-15,-2.3684757858670005e-15,8.24,6.41,7.2725,7.220000000000001,6.41,0.6874363606909369,-0.61
1 -> 2,6.983253000000004,6.983252999999998,6.983253000000001,6.983253000000001,6.983253000000004,2.912087692897636e-15,2.9605947323337506e-16,86.75,86.75,86.75,86.75,86.75,0.0,0.0,36.05000000000001,36.04999999999999,36.050000000000004,36.050000000000004,36.05000000000001,9.39959687352353e-15,-2.3684757858670005e-15,8.24,6.41,7.2725,7.220000000000001,6.41,0.6874363606909369,-0.61
1 -> 2,6.983253000000004,6.983252999999998,6.983253000000001,6.983253000000001,6.983253000000004,2.912087692897636e-15,2.9605947323337506e-16,86.75,86.75,86.75,86.75,86.75,0.0,0.0,36.05000000000001,36.04999999999999,36.050000000000004,36.050000000000004,36.05000000000001,9.39959687352353e-15,-2.3684757858670005e-15,6.12,6.04,6.0649999999999995,6.05,6.04,0.03278719262151005,-0.02666666666666669
1 -> 2,6.983253000000004,6.983252999999998,6.983253000000001,6.983253000000001,6.983253000000004,2.912087692897636e-15,2.9605947323337506e-16,86.75,86.75,86.75,86.75,86.75,0.0,0.0,36.05000000000001,36.04999999999999,36.050000000000004,36.050000000000004,36.05000000000001,9.39959687352353e-15,-2.3684757858670005e-15,6.12,6.04,6.0649999999999995,6.05,6.04,0.03278719262151005,-0.02666666666666669
1 -> 2,7.0434240000000035,7.043424000000001,7.043424000000002,7.043424000000002,7.043424000000001,1.4043333874306805e-15,0.0,86.75,86.75,86.75,86.75,86.75,0.0,0.0,36.05000000000001,36.04999999999999,36.050000000000004,36.050000000000004,36.05000000000001,9.39959687352353e-15,-2.3684757858670005e-15,5.8,3.32,4.6825,4.805,3.32,0.9372399639366644,-0.8266666666666667
1 -> 2,7.0434240000000035,7.043424000000001,7.043424000000002,7.043424000000002,7.043424000000001,1.4043333874306805e-15,0.0,86.75,86.75,86.75,86.75,86.75,0.0,0.0,36.05000000000001,36.04999999999999,36.050000000000004,36.050000000000004,36.05000000000001,9.39959687352353e-15,-2.3684757858670005e-15,5.8,3.32,4.6825,4.805,3.32,0.9372399639366644,-0.8266666666666667
1 -> 2,7.0434240000000035,7.043424000000001,7.043424000000002,7.043424000000002,7.043424000000001,1.4043333874306805e-15,0.0,86.75,86.75,86.75,86.75,86.75,0.0,0.0,36.05000000000001,36.04999999999999,36.050000000000004,36.050000000000004,36.05000000000001,9.39959687352353e-15,-2.3684757858670005e-15,2.29,0.34,1.2149999999999999,1.115,0.34,0.731385671174928,-0.65
1 -> 2,7.0434240000000035,7.043424000000001,7.043424000000002,7.043424000000002,7.043424000000001,1.4043333874306805e-15,0.0,86.75,86.75,86.75,86.75,86.75,0.0,0.0,36.05000000000001,36.04999999999999,36.050000000000004,36.050000000000004,36.05000000000001,9.39959687352353e-15,-2.3684757858670005e-15,2.29,0.34,1.2149999999999999,1.115,0.34,0.731385671174928,-0.65
1 -> 2,7.0434240000000035,7.043424000000001,7.043424000000002,7.043424000000002,7.043424000000001,1.4043333874306805e-15,0.0,86.75,86.75,86.75,86.75,86.75,0.0,0.0,36.05000000000001,36.04999999999999,36.050000000000004,36.050000000000004,36.05000000000001,9.39959687352353e-15,-2.3684757858670005e-15,-0.11,-2.86,-1.3275000000000001,-1.17,-2.86,1.0350694421148756,-0.9166666666666666
1 -> 2,7.0434240000000035,7.043424000000001,7.043424000000002,7.043424000000002,7.043424000000001,1.4043333874306805e-15,0.0,86.75,86.75,86.75,86.75,86.75,0.0,0.0,36.05000000000001,36.04999999999999,36.050000000000004,36.050000000000004,36.05000000000001,9.39959687352353e-15,-2.3684757858670005e-15,-0.11,-2.86,-1.3275000000000001,-1.17,-2.86,1.0350694421148756,-0.9166666666666666
1 -> 2,7.0434240000000035,7.043424000000001,7.043424000000002,7.043424000000002,7.043424000000001,1.4043333874306805e-15,0.0,86.75,86.75,86.75,86.75,86.75,0.0,0.0,36.05000000000001,36.04999999999999,36.050000000000004,36.050000000000004,36.05000000000001,9.39959687352353e-15,-2.3684757858670005e-15,-4.4,-9.86,-7.0975,-7.0649999999999995,-9.86,2.0384598965885985,-1.8199999999999996
1 -> 2,7.0434240000000035,7.043424000000001,7.043424000000002,7.043424000000002,7.043424000000001,1.4043333874306805e-15,0.0,86.75,86.75,86.75,86.75,86.75,0.0,0.0,36.05000000000001,36.04999999999999,36.050000000000004,36.050000000000004,36.05000000000001,9.39959687352353e-15,-2.3684757858670005e-15,-4.4,-9.86,-7.0975,-7.0649999999999995,-9.86,2.0384598965885985,-1.8199999999999996
1 -> 2,7.061348000000003,7.061348000000001,7.061348000000002,7.061348000000002,7.061348000000003,1.1749496091904413e-15,2.9605947323337506e-16,86.75,86.75,86.75,86.75,86.75,0.0,0.0,36.05000000000001,36.04999999999999,36.050000000000004,36.050000000000004,36.05000000000001,9.39959687352353e-15,-2.3684757858670005e-15,-11.62,-13.83,-13.049999999999999,-13.375,-13.83,0.8787775600230134,-0.6966666666666672
1 -> 2,7.061348000000003,7.061348000000001,7.061348000000002,7.061348000000002,7.061348000000003,1.1749496091904413e-15,2.9605947323337506e-16,86.75,86.75,86.75,86.75,86.75,0.0,0.0,36.05000000000001,36.04999999999999,36.050000000000004,36.050000000000004,36.05000000000001,9.39959687352353e-15,-2.3684757858670005e-15,-11.62,-13.83,-13.049999999999999,-13.375,-13.83,0.8787775600230134,-0.6966666666666672
1 -> 2,7.061348000000003,7.061348000000001,7.061348000000002,7.061348000000002,7.061348000000003,1.1749496091904413e-15,2.9605947323337506e-16,86.75,86.75,86.75,86.75,86.75,0.0,0.0,36.05000000000001,36.04999999999999,36.050000000000004,36.050000000000004,36.05000000000001,9.39959687352353e-15,-2.3684757858670005e-15,-4.07,-12.51,-8.567499999999999,-8.845,-12.51,3.1708545772393912,2.813333333333333
1 -> 2,7.061348000000003,7.061348000000001,7.061348000000002,7.061348000000002,7.061348000000003,1.1749496091904413e-15,2.9605947323337506e-16,86.75,86.75,86.75,86.75,86.75,0.0,0.0,36.05000000000001,36.04999999999999,36.050000000000004,36.050000000000004,36.05000000000001,9.39959687352353e-15,-2.3684757858670005e-15,-4.07,-12.51,-8.567499999999999,-8.845,-12.51,3.1708545772393912,2.813333333333333
1 -> 2,7.061348000000003,7.061348000000001,7.061348000000002,7.061348000000002,7.061348000000003,1.1749496091904413e-15,2.9605947323337506e-16,86.75,86.75,86.75,86.75,86.75,0.0,0.0,36.05000000000001,36.04999999999999,36.050000000000004,36.050000000000004,36.05000000000001,9.39959687352353e-15,-2.3684757858670005e-15,7.06,-0.78,3.3525,3.565,-0.78,2.9313765964133642,2.6133333333333333
1 -> 2,7.061348000000003,7.061348000000001,7.061348000000002,7.061348000000002,7.061348000000003,1.1749496091904413e-15,2.9605947323337506e-16,86.75,86.75,86.75,86.75,86.75,0.0,0.0,36.05000000000001,36.04999999999999,36.050000000000004,36.050000000000004,36.05000000000001,9.39959687352353e-15,-2.3684757858670005e-15,7.06,-0.78,3.3525,3.565,-0.78,2.9313765964133642,2.6133333333333333
1 -> 2,7.061348000000003,7.061348000000001,7.061348000000002,7.061348000000002,7.061348000000003,1.1749496091904413e-15,2.9605947323337506e-16,86.75,86.75,86.75,86.75,86.75,0.0,0.0,36.05000000000001,36.04999999999999,36.050000000000004,36.050000000000004,36.05000000000001,9.39959687352353e-15,-2.3684757858670005e-15,11.54,8.79,10.337499999999999,10.51,8.79,1.03531094362998,0.9166666666666666
1 -> 2,7.061348000000003,7.061348000000001,7.061348000000002,7.061348000000002,7.061348000000003,1.1749496091904413e-15,2.9605947323337506e-16,86.75,86.75,86.75,86.75,86.75,0.0,0.0,36.05000000000001,36.04999999999999,36.050000000000004,36.050000000000004,36.05000000000001,9.39959687352353e-15,-2.3684757858670005e-15,11.54,8.79,10.337499999999999,10.51,8.79,1.03531094362998,0.9166666666666666
1 -> 2,7.0779910000000035,7.077990999999999,7.077991000000002,7.077991000000003,7.0779910000000035,1.88411095042053e-15,5.921189464667501e-16,86.75,86.75,86.75,86.75,86.75,0.0,0.0,36.05000000000001,36.04999999999999,36.050000000000004,36.050000000000004,36.05000000000001,9.39959687352353e-15,-2.3684757858670005e-15,12.78,11.94,12.379999999999999,12.399999999999999,11.94,0.31368774282716233,0.27999999999999997
1 -> 2,7.0779910000000035,7.077990999999999,7.077991000000002,7.077991000000003,7.0779910000000035,1.88411095042053e-15,5.921189464667501e-16,86.75,86.75,86.75,86.75,86.75,0.0,0.0,36.05000000000001,36.04999999999999,36.050000000000004,36.050000000000004,36.05000000000001,9.39959687352353e-15,-2.3684757858670005e-15,12.78,11.94,12.379999999999999,12.399999999999999,11.94,0.31368774282716233,0.27999999999999997
1 -> 2,7.0779910000000035,7.077990999999999,7.077991000000002,7.077991000000003,7.0779910000000035,1.88411095042053e-15,5.921189464667501e-16,86.75,86.75,86.75,86.75,86.75,0.0,0.0,36.05000000000001,36.04999999999999,36.050000000000004,36.050000000000004,36.05000000000001,9.39959687352353e-15,-2.3684757858670005e-15,12.99,12.64,12.8675,12.92,12.64,0.13608361400256802,-0.1033333333333329
1 -> 2,7.0779910000000035,7.077990999999999,7.077991000000002,7.077991000000003,7.0779910000000035,1.88411095042053e-15,5.921189464667501e-16,86.75,86.75,86.75,86.75,86.75,0.0,0.0,36.05000000000001,36.04999999999999,36.050000000000004,36.050000000000004,36.05000000000001,9.39959687352353e-15,-2.3684757858670005e-15,12.99,12.64,12.8675,12.92,12.64,0.13608361400256802,-0.1033333333333329
1 -> 2,7.0779910000000035,7.077990999999999,7.077991000000002,7.077991000000003,7.0779910000000035,1.88411095042053e-15,5.921189464667501e-16,86.75,86.75,86.75,86.75,86.75,0.0,0.0,36.05000000000001,36.04999999999999,36.050000000000004,36.050000000000004,36.05000000000001,9.39959687352353e-15,-2.3684757858670005e-15,12.22,10.16,11.2425,11.295,10.16,0.7721520251867506,-0.6866666666666669
1 -> 2,7.0779910000000035,7.077990999999999,7.077991000000002,7.077991000000003,7.0779910000000035,1.88411095042053e-15,5.921189464667501e-16,86.75,86.75,86.75,86.75,86.75,0.0,0.0,36.05000000000001,36.04999999999999,36.050000000000004,36.050000000000004,36.05000000000001,9.39959687352353e-15,-2.3684757858670005e-15,12.22,10.16,11.2425,11.295,10.16,0.7721520251867506,-0.6866666666666669
1 -> 2,7.0779910000000035,7.077990999999999,7.077991000000002,7.077991000000003,7.0779910000000035,1.88411095042053e-15,5.921189464667501e-16,86.75,86.75,86.75,86.75,86.75,0.0,0.0,36.05000000000001,36.04999999999999,36.050000000000004,36.050000000000004,36.05000000000001,9.39959687352353e-15,-2.3684757858670005e-15,9.39,7.37,8.375,8.370000000000001,7.37,0.7491828882188915,-0.6733333333333335
1 -> 2,7.0779910000000035,7.077990999999999,7.077991000000002,7.077991000000003,7.0779910000000035,1.88411095042053e-15,5.921189464667501e-16,86.75,86.75,86.75,86.75,86.75,0.0,0.0,36.05000000000001,36.04999999999999,36.050000000000004,36.050000000000004,36.05000000000001,9.39959687352353e-15,-2.3684757858670005e-15,9.39,7.37,8.375,8.370000000000001,7.37,0.7491828882188915,-0.6733333333333335
1 -> 2,7.069029000000003,7.069028999999995,7.069029,7.069029,7.069029000000003,3.794299872214038e-15,2.9605947323337506e-16,81.6,81.6,81.6,81.6,81.6,0.0,0.0,36.070000000000014,36.07,36.07000000000001,36.07000000000001,36.070000000000014,6.153480596427404e-15,2.3684757858670005e-15,6.49,2.34,4.51,4.605,2.34,1.5548151015474478,-1.3833333333333335
1 -> 2,7.069029000000003,7.069028999999995,7.069029,7.069029,7.069029000000003,3.794299872214038e-15,2.9605947323337506e-16,81.6,81.6,81.6,81.6,81.6,0.0,0.0,36.070000000000014,36.07,36.07000000000001,36.07000000000001,36.070000000000014,6.153480596427404e-15,2.3684757858670005e-15,6.49,2.34,4.51,4.605,2.34,1.5548151015474478,-1.3833333333333335
1 -> 2,7.069029000000003,7.069028999999995,7.069029,7.069029,7.069029000000003,3.794299872214038e-15,2.9605947323337506e-16,81.6,81.6,81.6,81.6,81.6,0.0,0.0,36.070000000000014,36.07,36.07000000000001,36.07000000000001,36.070000000000014,6.153480596427404e-15,2.3684757858670005e-15,0.86,-2.88,-1.0075,-1.0050000000000001,-2.88,1.3854850233762905,-1.2466666666666668
1 -> 2,7.069029000000003,7.069028999999995,7.069029,7.069029,7.069029000000003,3.794299872214038e-15,2.9605947323337506e-16,81.6,81.6,81.6,81.6,81.6,0.0,0.0,36.070000000000014,36.07,36.07000000000001,36.07000000000001,36.070000000000014,6.153480596427404e-15,2.3684757858670005e-15,0.86,-2.88,-1.0075,-1.0050000000000001,-2.88,1.3854850233762905,-1.2466666666666668
1 -> 2,7.069029000000003,7.069028999999995,7.069029,7.069029,7.069029000000003,3.794299872214038e-15,2.9605947323337506e-16,81.6,81.6,81.6,81.6,81.6,0.0,0.0,36.070000000000014,36.07,36.07000000000001,36.07000000000001,36.070000000000014,6.153480596427404e-15,2.3684757858670005e-15,-4.62,-12.07,-8.285,-8.225000000000001,-12.07,2.796287717671413,-2.4833333333333334
1 -> 2,7.069029000000003,7.069028999999995,7.069029,7.069029,7.069029000000003,3.794299872214038e-15,2.9605947323337506e-16,81.6,81.6,81.6,81.6,81.6,0.0,0.0,36.070000000000014,36.07,36.07000000000001,36.07000000000001,36.070000000000014,6.153480596427404e-15,2.3684757858670005e-15,-4.62,-12.07,-8.285,-8.225000000000001,-12.07,2.796287717671413,-2.4833333333333334
1 -> 2,7.069029000000003,7.069028999999995,7.069029,7.069029,7.069029000000003,3.794299872214038e-15,2.9605947323337506e-16,81.6,81.6,81.6,81.6,81.6,0.0,0.0,36.070000000000014,36.07,36.07000000000001,36.07000000000001,36.070000000000014,6.153480596427404e-15,2.3684757858670005e-15,-11.28,-14.34,-13.22,-13.629999999999999,-14.34,1.165568530803745,0.8500000000000002
1 -> 2,7.069029000000003,7.069028999999995,7.069029,7.069029,7.069029000000003,3.794299872214038e-15,2.9605947323337506e-16,81.6,81.6,81.6,81.6,81.6,0.0,0.0,36.070000000000014,36.07,36.07000000000001,36.07000000000001,36.070000000000014,6.153480596427404e-15,2.3684757858670005e-15,-11.28,-14.34,-13.22,-13.629999999999999,-14.34,1.165568530803745,0.8500000000000002
1 -> 2,7.0459850000000035,7.045984999999997,7.045985000000001,7.045985000000001,7.0459850000000035,2.912087692897636e-15,2.9605947323337506e-16,81.6,81.6,81.6,81.6,81.6,0.0,0.0,36.070000000000014,36.07,36.07000000000001,36.07000000000001,36.070000000000014,6.153480596427404e-15,2.3684757858670005e-15,1.3,-8.32,-3.4525,-3.395,-8.32,3.5927661696804036,3.206666666666667
1 -> 2,7.0459850000000035,7.045984999999997,7.045985000000001,7.045985000000001,7.0459850000000035,2.912087692897636e-15,2.9605947323337506e-16,81.6,81.6,81.6,81.6,81.6,0.0,0.0,36.070000000000014,36.07,36.07000000000001,36.07000000000001,36.070000000000014,6.153480596427404e-15,2.3684757858670005e-15,1.3,-8.32,-3.4525,-3.395,-8.32,3.5927661696804036,3.206666666666667
1 -> 2,7.0459850000000035,7.045984999999997,7.045985000000001,7.045985000000001,7.0459850000000035,2.912087692897636e-15,2.9605947323337506e-16,81.6,81.6,81.6,81.6,81.6,0.0,0.0,36.070000000000014,36.07,36.07000000000001,36.07000000000001,36.070000000000014,6.153480596427404e-15,2.3684757858670005e-15,10.11,4.08,7.327500000000001,7.5600000000000005,4.08,2.2626022076361543,2.01
1 -> 2,7.0459850000000035,7.045984999999997,7.045985000000001,7.045985000000001,7.0459850000000035,2.912087692897636e-15,2.9605947323337506e-16,81.6,81.6,81.6,81.6,81.6,0.0,0.0,36.070000000000014,36.07,36.07000000000001,36.07000000000001,36.070000000000014,6.153480596427404e-15,2.3684757858670005e-15,10.11,4.08,7.327500000000001,7.5600000000000005,4.08,2.2626022076361543,2.01
1 -> 2,7.0459850000000035,7.045984999999997,7.045985000000001,7.045985000000001,7.0459850000000035,2.912087692897636e-15,2.9605947323337506e-16,81.6,81.6,81.6,81.6,81.6,0.0,0.0,36.070000000000014,36.07,36.07000000000001,36.07000000000001,36.070000000000014,6.153480596427404e-15,2.3684757858670005e-15,11.41,10.82,11.14,11.165,10.82,0.22527760652137596,-0.07666666666666681
1 -> 2,7.0459850000000035,7.045984999999997,7.045985000000001,7.045985000000001,7.0459850000000035,2.912087692897636e-15,2.9605947323337506e-16,81.6,81.6,81.6,81.6,81.6,0.0,0.0,36.070000000000014,36.07,36.07000000000001,36.07000000000001,36.070000000000014,6.153480596427404e-15,2.3684757858670005e-15,11.41,10.82,11.14,11.165,10.82,0.22527760652137596,-0.07666666666666681
1 -> 2,7.0459850000000035,7.045984999999997,7.045985000000001,7.045985000000001,7.0459850000000035,2.912087692897636e-15,2.9605947323337506e-16,81.6,81.6,81.6,81.6,81.6,0.0,0.0,36.070000000000014,36.07,36.07000000000001,36.07000000000001,36.070000000000014,6.153480596427404e-15,2.3684757858670005e-15,10.19,8.04,9.135,9.155000000000001,8.04,0.800765258986677,-0.7166666666666668
1 -> 2,7.0459850000000035,7.045984999999997,7.045985000000001,7.045985000000001,7.0459850000000035,2.912087692897636e-15,2.9605947323337506e-16,81.6,81.6,81.6,81.6,81.6,0.0,0.0,36.070000000000014,36.07,36.07000000000001,36.07000000000001,36.070000000000014,6.153480596427404e-15,2.3684757858670005e-15,10.19,8.04,9.135,9.155000000000001,8.04,0.800765258986677,-0.7166666666666668
1 -> 2,7.012698000000004,7.0126979999999985,7.012698000000002,7.012698000000001,7.0126979999999985,2.808666774861361e-15,0.0,81.6,81.6,81.6,81.6,81.6,0.0,0.0,36.070000000000014,36.07,36.07000000000001,36.07000000000001,36.070000000000014,6.153480596427404e-15,2.3684757858670005e-15,7.19,4.33,5.76,5.76,4.33,1.0688779163215976,-0.9533333333333335
1 -> 2,7.012698000000004,7.0126979999999985,7.012698000000002,7.012698000000001,7.0126979999999985,2.808666774861361e-15,0.0,81.6,81.6,81.6,81.6,81.6,0.0,0.0,36.070000000000014,36.07,36.07000000000001,36.07000000000001,36.070000000000014,6.153480596427404e-15,2.3684757858670005e-15,7.19,4.33,5.76,5.76,4.33,1.0688779163215976,-0.9533333333333335
1 -> 2,7.012698000000004,7.0126979999999985,7.012698000000002,7.012698000000001,7.0126979999999985,2.808666774861361e-15,0.0,81.6,81.6,81.6,81.6,81.6,0.0,0.0,36.070000000000014,36.07,36.07000000000001,36.07000000000001,36.070000000000014,6.153480596427404e-15,2.3684757858670005e-15,3.46,0.77,2.165,2.215,0.77,1.0008121701897912,-0.8966666666666666
1 -> 2,7.012698000000004,7.0126979999999985,7.012698000000002,7.012698000000001,7.0126979999999985,2.808666774861361e-15,0.0,81.6,81.6,81.6,81.6,81.6,0.0,0.0,36.070000000000014,36.07,36.07000000000001,36.07000000000001,36.070000000000014,6.153480596427404e-15,2.3684757858670005e-15,3.46,0.77,2.165,2.215,0.77,1.0008121701897912,-0.8966666666666666
1 -> 2,7.012698000000004,7.0126979999999985,7.012698000000002,7.012698000000001,7.0126979999999985,2.808666774861361e-15,0.0,81.6,81.6,81.6,81.6,81.6,0.0,0.0,36.070000000000014,36.07,36.07000000000001,36.07000000000001,36.070000000000014,6.153480596427404e-15,2.3684757858670005e-15,-0.41,-4.1,-2.2925,-2.33,-4.1,1.379082575482701,-1.2299999999999998
1 -> 2,7.012698000000004,7.0126979999999985,7.012698000000002,7.012698000000001,7.0126979999999985,2.808666774861361e-15,0.0,81.6,81.6,81.6,81.6,81.6,0.0,0.0,36.070000000000014,36.07,36.07000000000001,36.07000000000001,36.070000000000014,6.153480596427404e-15,2.3684757858670005e-15,-0.41,-4.1,-2.2925,-2.33,-4.1,1.379082575482701,-1.2299999999999998
1 -> 2,7.012698000000004,7.0126979999999985,7.012698000000002,7.012698000000001,7.0126979999999985,2.808666774861361e-15,0.0,81.6,81.6,81.6,81.6,81.6,0.0,0.0,36.070000000000014,36.07,36.07000000000001,36.07000000000001,36.070000000000014,6.153480596427404e-15,2.3684757858670005e-15,-5.07,-7.5,-6.2925,-6.300000000000001,-7.5,0.9023407061636973,-0.8099999999999999
1 -> 2,7.012698000000004,7.0126979999999985,7.012698000000002,7.012698000000001,7.0126979999999985,2.808666774861361e-15,0.0,81.6,81.6,81.6,81.6,81.6,0.0,0.0,36.070000000000014,36.07,36.07000000000001,36.07000000000001,36.070000000000014,6.153480596427404e-15,2.3684757858670005e-15,-5.07,-7.5,-6.2925,-6.300000000000001,-7.5,0.9023407061636973,-0.8099999999999999
1 -> 2,6.958928000000004,6.958927999999996,6.958928,6.958928,6.958928000000004,3.607797795906347e-15,5.921189464667501e-16,81.6,81.6,81.6,81.6,81.6,0.0,0.0,36.070000000000014,36.07,36.07000000000001,36.07000000000001,36.070000000000014,6.153480596427404e-15,2.3684757858670005e-15,-8.43,-11.63,-10.035,-10.04,-11.63,1.1986763533164408,-1.066666666666667
1 -> 2,6.958928000000004,6.958927999999996,6.958928,6.958928,6.958928000000004,3.607797795906347e-15,5.921189464667501e-16,81.6,81.6,81.6,81.6,81.6,0.0,0.0,36.070000000000014,36.07,36.07000000000001,36.07000000000001,36.070000000000014,6.153480596427404e-15,2.3684757858670005e-15,-8.43,-11.63,-10.035,-10.04,-11.63,1.1986763533164408,-1.066666666666667
1 -> 2,6.958928000000004,6.958927999999996,6.958928,6.958928,6.958928000000004,3.607797795906347e-15,5.921189464667501e-16,81.6,81.6,81.6,81.6,81.6,0.0,0.0,36.070000000000014,36.07,36.07000000000001,36.07000000000001,36.070000000000014,6.153480596427404e-15,2.3684757858670005e-15,-9.32,-12.3,-11.315,-11.82,-12.3,1.2166655251136198,0.9933333333333335
1 -> 2,6.958928000000004,6.958927999999996,6.958928,6.958928,6.958928000000004,3.607797795906347e-15,5.921189464667501e-16,81.6,81.6,81.6,81.6,81.6,0.0,0.0,36.070000000000014,36.07,36.07000000000001,36.07000000000001,36.070000000000014,6.153480596427404e-15,2.3684757858670005e-15,-9.32,-12.3,-11.315,-11.82,-12.3,1.2166655251136198,0.9933333333333335
1 -> 2,6.958928000000004,6.958927999999996,6.958928,6.958928,6.958928000000004,3.607797795906347e-15,5.921189464667501e-16,81.6,81.6,81.6,81.6,81.6,0.0,0.0,36.070000000000014,36.07,36.07000000000001,36.07000000000001,36.070000000000014,6.153480596427404e-15,2.3684757858670005e-15,4.38,-6.36,-0.9625000000000001,-0.935,-6.36,4.017426881724171,3.58
1 -> 2,6.958928000000004,6.958927999999996,6.958928,6.958928,6.958928000000004,3.607797795906347e-15,5.921189464667501e-16,81.6,81.6,81.6,81.6,81.6,0.0,0.0,36.070000000000014,36.07,36.07000000000001,36.07000000000001,36.070000000000014,6.153480596427404e-15,2.3684757858670005e-15,4.38,-6.36,-0.9625000000000001,-0.935,-6.36,4.017426881724171,3.58
1 -> 2,6.958928000000004,6.958927999999996,6.958928,6.958928,6.958928000000004,3.607797795906347e-15,5.921189464667501e-16,81.6,81.6,81.6,81.6,81.6,0.0,0.0,36.070000000000014,36.07,36.07000000000001,36.07000000000001,36.070000000000014,6.153480596427404e-15,2.3684757858670005e-15,12.88,7.33,10.360000000000001,10.614999999999998,7.33,2.0818141127391754,1.8500000000000003
1 -> 2,6.958928000000004,6.958927999999996,6.958928,6.958928,6.958928000000004,3.607797795906347e-15,5.921189464667501e-16,81.6,81.6,81.6,81.6,81.6,0.0,0.0,36.070000000000014,36.07,36.07000000000001,36.07000000000001,36.070000000000014,6.153480596427404e-15,2.3684757858670005e-15,12.88,7.33,10.360000000000001,10.614999999999998,7.33,2.0818141127391754,1.8500000000000003
1 -> 2,6.916679000000004,6.916678999999999,6.916679000000002,6.916679000000002,6.916679000000004,1.88411095042053e-15,5.921189464667501e-16,83.17,83.17,83.17,83.17,83.17,0.0,0.0,36.030000000000015,36.02999999999998,36.03,36.03,36.030000000000015,1.507288760336424e-14,4.736951571734001e-15,14.11,13.1,13.7125,13.82,13.1,0.376189779233833,-0.21666666666666679
1 -> 2,6.916679000000004,6.916678999999999,6.916679000000002,6.916679000000002,6.916679000000004,1.88411095042053e-15,5.921189464667501e-16,83.17,83.17,83.17,83.17,83.17,0.0,0.0,36.030000000000015,36.02999999999998,36.03,36.03,36.030000000000015,1.507288760336424e-14,4.736951571734001e-15,14.11,13.1,13.7125,13.82,13.1,0.376189779233833,-0.21666666666666679
1 -> 2,6.916679000000004,6.916678999999999,6.916679000000002,6.916679000000002,6.916679000000004,1.88411095042053e-15,5.921189464667501e-16,83.17,83.17,83.17,83.17,83.17,0.0,0.0,36.030000000000015,36.02999999999998,36.03,36.03,36.030000000000015,1.507288760336424e-14,4.736951571734001e-15,11.84,7.79,9.719999999999999,9.625,7.79,1.5238602298111201,-1.3499999999999999
1 -> 2,6.916679000000004,6.916678999999999,6.916679000000002,6.916679000000002,6.916679000000004,1.88411095042053e-15,5.921189464667501e-16,83.17,83.17,83.17,83.17,83.17,0.0,0.0,36.030000000000015,36.02999999999998,36.03,36.03,36.030000000000015,1.507288760336424e-14,4.736951571734001e-15,11.84,7.79,9.719999999999999,9.625,7.79,1.5238602298111201,-1.3499999999999999
1 -> 2,6.916679000000004,6.916678999999999,6.916679000000002,6.916679000000002,6.916679000000004,1.88411095042053e-15,5.921189464667501e-16,83.17,83.17,83.17,83.17,83.17,0.0,0.0,36.030000000000015,36.02999999999998,36.03,36.03,36.030000000000015,1.507288760336424e-14,4.736951571734001e-15,8.3,7.24,7.6275,7.484999999999999,7.24,0.4313568708158017,0.3533333333333335
1 -> 2,6.916679000000004,6.916678999999999,6.916679000000002,6.916679000000002,6.916679000000004,1.88411095042053e-15,5.921189464667501e-16,83.17,83.17,83.17,83.17,83.17,0.0,0.0,36.030000000000015,36.02999999999998,36.03,36.03,36.030000000000015,1.507288760336424e-14,4.736951571734001e-15,8.3,7.24,7.6275,7.484999999999999,7.24,0.4313568708158017,0.3533333333333335
1 -> 2,6.916679000000004,6.916678999999999,6.916679000000002,6.916679000000002,6.916679000000004,1.88411095042053e-15,5.921189464667501e-16,83.17,83.17,83.17,83.17,83.17,0.0,0.0,36.030000000000015,36.02999999999998,36.03,36.03,36.030000000000015,1.507288760336424e-14,4.736951571734001e-15,8.7,7.04,8.1175,8.365,7.04,0.6702378309227254,-0.5533333333333331
1 -> 2,6.916679000000004,6.916678999999999,6.916679000000002,6.916679000000002,6.916679000000004,1.88411095042053e-15,5.921189464667501e-16,83.17,83.17,83.17,83.17,83.17,0.0,0.0,36.030000000000015,36.02999999999998,36.03,36.03,36.030000000000015,1.507288760336424e-14,4.736951571734001e-15,8.7,7.04,8.1175,8.365,7.04,0.6702378309227254,-0.5533333333333331
1 -> 2,6.866750000000003,6.866749999999998,6.8667500000000015,6.866750000000003,6.866750000000003,2.220446049250313e-15,1.4802973661668755e-15,83.17,83.17,83.17,83.17,83.17,0.0,0.0,36.030000000000015,36.02999999999998,36.03,36.03,36.030000000000015,1.507288760336424e-14,4.736951571734001e-15,5.73,1.8,3.7275,3.6899999999999995,1.8,1.4662260228218569,-1.3100000000000003
1 -> 2,6.866750000000003,6.866749999999998,6.8667500000000015,6.866750000000003,6.866750000000003,2.220446049250313e-15,1.4802973661668755e-15,83.17,83.17,83.17,83.17,83.17,0.0,0.0,36.030000000000015,36.02999999999998,36.03,36.03,36.030000000000015,1.507288760336424e-14,4.736951571734001e-15,5.73,1.8,3.7275,3.6899999999999995,1.8,1.4662260228218569,-1.3100000000000003
1 -> 2,6.866750000000003,6.866749999999998,6.8667500000000015,6.866750000000003,6.866750000000003,2.220446049250313e-15,1.4802973661668755e-15,83.17,83.17,83.17,83.17,83.17,0.0,0.0,36.030000000000015,36.02999999999998,36.03,36.03,36.030000000000015,1.507288760336424e-14,4.736951571734001e-15,0.59,-3.7,-1.4625,-1.3699999999999999,-3.7,1.5981454095294332,-1.4300000000000004
1 -> 2,6.866750000000003,6.866749999999998,6.8667500000000015,6.866750000000003,6.866750000000003,2.220446049250313e-15,1.4802973661668755e-15,83.17,83.17,83.17,83.17,83.17,0.0,0.0,36.030000000000015,36.02999999999998,36.03,36.03,36.030000000000015,1.507288760336424e-14,4.736951571734001e-15,0.59,-3.7,-1.4625,-1.3699999999999999,-3.7,1.5981454095294332,-1.4300000000000004
1 -> 2,6.866750000000003,6.866749999999998,6.8667500000000015,6.866750000000003,6.866750000000003,2.220446049250313e-15,1.4802973661668755e-15,83.17,83.17,83.17,83.17,83.17,0.0,0.0,36.030000000000015,36.02999999999998,36.03,36.03,36.030000000000015,1.507288760336424e-14,4.736951571734001e-15,-5.63,-12.69,-9.1425,-9.125,-12.69,2.64217121890312,-2.353333333333333
1 -> 2,6.866750000000003,6.866749999999998,6.8667500000000015,6.866750000000003,6.866750000000003,2.220446049250313e-15,1.4802973661668755e-15,83.17,83.17,83.17,83.17,83.17,0.0,0.0,36.030000000000015,36.02999999999998,36.03,36.03,36.030000000000015,1.507288760336424e-14,4.736951571734001e-15,-5.63,-12.69,-9.1425,-9.125,-12.69,2.64217121890312,-2.353333333333333
1 -> 2,6.866750000000003,6.866749999999998,6.8667500000000015,6.866750000000003,6.866750000000003,2.220446049250313e-15,1.4802973661668755e-15,83.17,83.17,83.17,83.17,83.17,0.0,0.0,36.030000000000015,36.02999999999998,36.03,36.03,36.030000000000015,1.507288760336424e-14,4.736951571734001e-15,-13.19,-15.31,-14.4675,-14.685,-15.31,0.7925394311956981,0.43333333333333357
1 -> 2,6.866750000000003,6.866749999999998,6.8667500000000015,6.866750000000003,6.866750000000003,2.220446049250313e-15,1.4802973661668755e-15,83.17,83.17,83.17,83.17,83.17,0.0,0.0,36.030000000000015,36.02999999999998,36.03,36.03,36.030000000000015,1.507288760336424e-14,4.736951571734001e-15,-13.19,-15.31,-14.4675,-14.685,-15.31,0.7925394311956981,0.43333333333333357
1 -> 2,6.828342000000004,6.8283419999999975,6.828342000000001,6.828342000000001,6.828342000000004,2.912087692897636e-15,2.9605947323337506e-16,83.17,83.17,83.17,83.17,83.17,0.0,0.0,36.030000000000015,36.02999999999998,36.03,36.03,36.030000000000015,1.507288760336424e-14,4.736951571734001e-15,-0.78,-10.51,-5.6275,-5.61,-10.51,3.6371511860245787,3.2433333333333336
1 -> 2,6.828342000000004,6.8283419999999975,6.828342000000001,6.828342000000001,6.828342000000004,2.912087692897636e-15,2.9605947323337506e-16,83.17,83.17,83.17,83.17,83.17,0.0,0.0,36.030000000000015,36.02999999999998,36.03,36.03,36.030000000000015,1.507288760336424e-14,4.736951571734001e-15,-0.78,-10.51,-5.6275,-5.61,-10.51,3.6371511860245787,3.2433333333333336
1 -> 2,6.828342000000004,6.8283419999999975,6.828342000000001,6.828342000000001,6.828342000000004,2.912087692897636e-15,2.9605947323337506e-16,83.17,83.17,83.17,83.17,83.17,0.0,0.0,36.030000000000015,36.02999999999998,36.03,36.03,36.030000000000015,1.507288760336424e-14,4.736951571734001e-15,7.93,2.04,5.2225,5.46,2.04,2.209744046264182,1.9633333333333332
1 -> 2,6.828342000000004,6.8283419999999975,6.828342000000001,6.828342000000001,6.828342000000004,2.912087692897636e-15,2.9605947323337506e-16,83.17,83.17,83.17,83.17,83.17,0.0,0.0,36.030000000000015,36.02999999999998,36.03,36.03,36.030000000000015,1.507288760336424e-14,4.736951571734001e-15,7.93,2.04,5.2225,5.46,2.04,2.209744046264182,1.9633333333333332
1 -> 2,6.828342000000004,6.8283419999999975,6.828342000000001,6.828342000000001,6.828342000000004,2.912087692897636e-15,2.9605947323337506e-16,83.17,83.17,83.17,83.17,83.17,0.0,0.0,36.030000000000015,36.02999999999998,36.03,36.03,36.030000000000015,1.507288760336424e-14,4.736951571734001e-15,9.02,8.0,8.625,8.739999999999998,8.0,0.380164438105407,-0.26333333333333303
1 -> 2,6.828342000000004,6.8283419999999975,6.828342000000001,6.828342000000001,6.828342000000004,2.912087692897636e-15,2.9605947323337506e-16,83.17,83.17,83.17,83.17,83.17,0.0,0.0,36.030000000000015,36.02999999999998,36.03,36.03,36.030000000000015,1.507288760336424e-14,4.736951571734001e-15,9.02,8.0,8.625,8.739999999999998,8.0,0.380164438105407,-0.26333333333333303
1 -> 2,6.828342000000004,6.8283419999999975,6.828342000000001,6.828342000000001,6.828342000000004,2.912087692897636e-15,2.9605947323337506e-16,83.17,83.17,83.17,83.17,83.17,0.0,0.0,36.030000000000015,36.02999999999998,36.03,36.03,36.030000000000015,1.507288760336424e-14,4.736951571734001e-15,7.22,5.89,6.455,6.355,5.89,0.5042072986381693,-0.44333333333333336
1 -> 2,6.828342000000004,6.8283419999999975,6.828342000000001,6.828342000000001,6.828342000000004,2.912087692897636e-15,2.9605947323337506e-16,83.17,83.17,83.17,83.17,83.17,0.0,0.0,36.030000000000015,36.02999999999998,36.03,36.03,36.030000000000015,1.507288760336424e-14,4.736951571734001e-15,7.22,5.89,6.455,6.355,5.89,0.5042072986381693,-0.44333333333333336
1 -> 2,6.8116990000000035,6.811698999999999,6.811699000000001,6.811699000000001,6.811698999999999,2.2644195468014703e-15,0.0,83.17,83.17,83.17,83.17,83.17,0.0,0.0,36.030000000000015,36.02999999999998,36.03,36.03,36.030000000000015,1.507288760336424e-14,4.736951571734001e-15,5.65,3.96,4.8950000000000005,4.985,3.96,0.6392378274163695,-0.5633333333333335
1 -> 2,6.8116990000000035,6.811698999999999,6.811699000000001,6.811699000000001,6.811698999999999,2.2644195468014703e-15,0.0,83.17,83.17,83.17,83.17,83.17,0.0,0.0,36.030000000000015,36.02999999999998,36.03,36.03,36.030000000000015,1.507288760336424e-14,4.736951571734001e-15,5.65,3.96,4.8950000000000005,4.985,3.96,0.6392378274163695,-0.5633333333333335
1 -> 2,6.8116990000000035,6.811698999999999,6.811699000000001,6.811699000000001,6.811698999999999,2.2644195468014703e-15,0.0,83.17,83.17,83.17,83.17,83.17,0.0,0.0,36.030000000000015,36.02999999999998,36.03,36.03,36.030000000000015,1.507288760336424e-14,4.736951571734001e-15,3.2,1.66,2.355,2.28,1.66,0.5773430522661549,-0.5133333333333334
1 -> 2,6.8116990000000035,6.811698999999999,6.811699000000001,6.811699000000001,6.811698999999999,2.2644195468014703e-15,0.0,83.17,83.17,83.17,83.17,83.17,0.0,0.0,36.030000000000015,36.02999999999998,36.03,36.03,36.030000000000015,1.507288760336424e-14,4.736951571734001e-15,3.2,1.66,2.355,2.28,1.66,0.5773430522661549,-0.5133333333333334
1 -> 2,6.8116990000000035,6.811698999999999,6.811699000000001,6.811699000000001,6.811698999999999,2.2644195468014703e-15,0.0,83.17,83.17,83.17,83.17,83.17,0.0,0.0,36.030000000000015,36.02999999999998,36.03,36.03,36.030000000000015,1.507288760336424e-14,4.736951571734001e-15,1.36,-0.05,0.7300000000000001,0.8049999999999999,-0.05,0.528630305601183,-0.47000000000000003
1 -> 2,6.8116990000000035,6.811698999999999,6.811699000000001,6.811699000000001,6.811698999999999,2.2644195468014703e-15,0.0,83.17,83.17,83.17,83.17,83.17,0.0,0.0,36.030000000000015,36.02999999999998,36.03,36.03,36.030000000000015,1.507288760336424e-14,4.736951571734001e-15,1.36,-0.05,0.7300000000000001,0.8049999999999999,-0.05,0.528630305601183,-0.47000000000000003
1 -> 2,6.8116990000000035,6.811698999999999,6.811699000000001,6.811699000000001,6.811698999999999,2.2644195468014703e-15,0.0,83.17,83.17,83.17,83.17,83.17,0.0,0.0,36.030000000000015,36.02999999999998,36.03,36.03,36.030000000000015,1.507288760336424e-14,4.736951571734001e-15,-0.89,-4.88,-2.7525,-2.62,-4.88,1.4917669891775993,-1.3299999999999998
1 -> 2,6.8116990000000035,6.811698999999999,6.811699000000001,6.811699000000001,6.811698999999999,2.2644195468014703e-15,0.0,83.17,83.17,83.17,83.17,83.17,0.0,0.0,36.030000000000015,36.02999999999998,36.03,36.03,36.030000000000015,1.507288760336424e-14,4.736951571734001e-15,-0.89,-4.88,-2.7525,-2.62,-4.88,1.4917669891775993,-1.3299999999999998
1 -> 2,6.864189000000003,6.864189,6.864189000000001,6.864189000000002,6.864189000000003,1.538370149106851e-15,5.921189464667501e-16,84.0,84.0,84.0,84.0,84.0,0.0,0.0,36.030000000000015,36.02999999999998,36.03,36.03,36.030000000000015,1.507288760336424e-14,4.736951571734001e-15,-6.78,-12.82,-9.89,-9.98,-12.82,2.267322209126881,-2.013333333333333
1 -> 2,6.864189000000003,6.864189,6.864189000000001,6.864189000000002,6.864189000000003,1.538370149106851e-15,5.921189464667501e-16,84.0,84.0,84.0,84.0,84.0,0.0,0.0,36.030000000000015,36.02999999999998,36.03,36.03,36.030000000000015,1.507288760336424e-14,4.736951571734001e-15,-6.78,-12.82,-9.89,-9.98,-12.82,2.267322209126881,-2.013333333333333
1 -> 2,6.864189000000003,6.864189,6.864189000000001,6.864189000000002,6.864189000000003,1.538370149106851e-15,5.921189464667501e-16,84.0,84.0,84.0,84.0,84.0,0.0,0.0,36.030000000000015,36.02999999999998,36.03,36.03,36.030000000000015,1.507288760336424e-14,4.736951571734001e-15,-9.1,-13.74,-12.03,-12.64,-13.74,1.8415618371371623,1.5466666666666669
1 -> 2,6.864189000000003,6.864189,6.864189000000001,6.864189000000002,6.864189000000003,1.538370149106851e-15,5.921189464667501e-16,84.0,84.0,84.0,84.0,84.0,0.0,0.0,36.030000000000015,36.02999999999998,36.03,36.03,36.030000000000015,1.507288760336424e-14,4.736951571734001e-15,-9.1,-13.74,-12.03,-12.64,-13.74,1.8415618371371623,1.5466666666666669
1 -> 2,6.864189000000003,6.864189,6.864189000000001,6.864189000000002,6.864189000000003,1.538370149106851e-15,5.921189464667501e-16,84.0,84.0,84.0,84.0,84.0,0.0,0.0,36.030000000000015,36.02999999999998,36.03,36.03,36.030000000000015,1.507288760336424e-14,4.736951571734001e-15,2.99,-5.79,-1.1700000000000002,-0.9400000000000001,-5.79,3.286183196354093,2.926666666666667
1 -> 2,6.864189000000003,6.864189,6.864189000000001,6.864189000000002,6.864189000000003,1.538370149106851e-15,5.921189464667501e-16,84.0,84.0,84.0,84.0,84.0,0.0,0.0,36.030000000000015,36.02999999999998,36.03,36.03,36.030000000000015,1.507288760336424e-14,4.736951571734001e-15,2.99,-5.79,-1.1700000000000002,-0.9400000000000001,-5.79,3.286183196354093,2.926666666666667
1 -> 2,6.864189000000003,6.864189,6.864189000000001,6.864189000000002,6.864189000000003,1.538370149106851e-15,5.921189464667501e-16,84.0,84.0,84.0,84.0,84.0,0.0,0.0,36.030000000000015,36.02999999999998,36.03,36.03,36.030000000000015,1.507288760336424e-14,4.736951571734001e-15,9.21,4.97,7.2175,7.345000000000001,4.97,1.5871574433558888,1.4133333333333338
1 -> 2,6.864189000000003,6.864189,6.864189000000001,6.864189000000002,6.864189000000003,1.538370149106851e-15,5.921189464667501e-16,84.0,84.0,84.0,84.0,84.0,0.0,0.0,36.030000000000015,36.02999999999998,36.03,36.03,36.030000000000015,1.507288760336424e-14,4.736951571734001e-15,9.21,4.97,7.2175,7.345000000000001,4.97,1.5871574433558888,1.4133333333333338
1 -> 2,6.880832000000003,6.880831999999998,6.880832000000001,6.880832000000002,6.880832000000003,2.4725840765205216e-15,2.9605947323337506e-16,84.0,84.0,84.0,84.0,84.0,0.0,0.0,36.030000000000015,36.02999999999998,36.03,36.03,36.030000000000015,1.507288760336424e-14,4.736951571734001e-15,10.5,10.01,10.3325,10.41,10.01,0.18991774535308711,0.1300000000000002
1 -> 2,6.880832000000003,6.880831999999998,6.880832000000001,6.880832000000002,6.880832000000003,2.4725840765205216e-15,2.9605947323337506e-16,84.0,84.0,84.0,84.0,84.0,0.0,0.0,36.030000000000015,36.02999999999998,36.03,36.03,36.030000000000015,1.507288760336424e-14,4.736951571734001e-15,10.5,10.01,10.3325,10.41,10.01,0.18991774535308711,0.1300000000000002
1 -> 2,6.880832000000003,6.880831999999998,6.880832000000001,6.880832000000002,6.880832000000003,2.4725840765205216e-15,2.9605947323337506e-16,84.0,84.0,84.0,84.0,84.0,0.0,0.0,36.030000000000015,36.02999999999998,36.03,36.03,36.030000000000015,1.507288760336424e-14,4.736951571734001e-15,10.24,10.07,10.135,10.114999999999998,10.07,0.06344288770224772,-0.04333333333333359
1 -> 2,6.880832000000003,6.880831999999998,6.880832000000001,6.880832000000002,6.880832000000003,2.4725840765205216e-15,2.9605947323337506e-16,84.0,84.0,84.0,84.0,84.0,0.0,0.0,36.030000000000015,36.02999999999998,36.03,36.03,36.030000000000015,1.507288760336424e-14,4.736951571734001e-15,10.24,10.07,10.135,10.114999999999998,10.07,0.06344288770224772,-0.04333333333333359
1 -> 2,6.880832000000003,6.880831999999998,6.880832000000001,6.880832000000002,6.880832000000003,2.4725840765205216e-15,2.9605947323337506e-16,84.0,84.0,84.0,84.0,84.0,0.0,0.0,36.030000000000015,36.02999999999998,36.03,36.03,36.030000000000015,1.507288760336424e-14,4.736951571734001e-15,11.45,10.24,10.79,10.735,10.24,0.45732920309116465,0.40333333333333304
1 -> 2,6.880832000000003,6.880831999999998,6.880832000000001,6.880832000000002,6.880832000000003,2.4725840765205216e-15,2.9605947323337506e-16,84.0,84.0,84.0,84.0,84.0,0.0,0.0,36.030000000000015,36.02999999999998,36.03,36.03,36.030000000000015,1.507288760336424e-14,4.736951571734001e-15,11.45,10.24,10.79,10.735,10.24,0.45732920309116465,0.40333333333333304
1 -> 2,6.880832000000003,6.880831999999998,6.880832000000001,6.880832000000002,6.880832000000003,2.4725840765205216e-15,2.9605947323337506e-16,84.0,84.0,84.0,84.0,84.0,0.0,0.0,36.030000000000015,36.02999999999998,36.03,36.03,36.030000000000015,1.507288760336424e-14,4.736951571734001e-15,12.02,11.13,11.700000000000001,11.825,11.13,0.3408078637590391,-0.25
1 -> 2,6.880832000000003,6.880831999999998,6.880832000000001,6.880832000000002,6.880832000000003,2.4725840765205216e-15,2.9605947323337506e-16,84.0,84.0,84.0,84.0,84.0,0.0,0.0,36.030000000000015,36.02999999999998,36.03,36.03,36.030000000000015,1.507288760336424e-14,4.736951571734001e-15,12.02,11.13,11.700000000000001,11.825,11.13,0.3408078637590391,-0.25
1 -> 2,7.002456000000005,7.002456000000002,7.002456000000003,7.002456000000003,7.002456000000003,9.930136612989092e-16,8.881784197001252e-16,84.0,84.0,84.0,84.0,84.0,0.0,0.0,36.030000000000015,36.02999999999998,36.03,36.03,36.030000000000015,1.507288760336424e-14,4.736951571734001e-15,10.25,8.35,9.167499999999999,9.035,8.35,0.7245127673133166,-0.6333333333333334
1 -> 2,7.002456000000005,7.002456000000002,7.002456000000003,7.002456000000003,7.002456000000003,9.930136612989092e-16,8.881784197001252e-16,84.0,84.0,84.0,84.0,84.0,0.0,0.0,36.030000000000015,36.02999999999998,36.03,36.03,36.030000000000015,1.507288760336424e-14,4.736951571734001e-15,10.25,8.35,9.167499999999999,9.035,8.35,0.7245127673133166,-0.6333333333333334
1 -> 2,7.002456000000005,7.002456000000002,7.002456000000003,7.002456000000003,7.002456000000003,9.930136612989092e-16,8.881784197001252e-16,84.0,84.0,84.0,84.0,84.0,0.0,0.0,36.030000000000015,36.02999999999998,36.03,36.03,36.030000000000015,1.507288760336424e-14,4.736951571734001e-15,8.57,8.31,8.445,8.45,8.45,0.09205976319760974,0.046666666666666266
1 -> 2,7.002456000000005,7.002456000000002,7.002456000000003,7.002456000000003,7.002456000000003,9.930136612989092e-16,8.881784197001252e-16,84.0,84.0,84.0,84.0,84.0,0.0,0.0,36.030000000000015,36.02999999999998,36.03,36.03,36.030000000000015,1.507288760336424e-14,4.736951571734001e-15,8.57,8.31,8.445,8.45,8.45,0.09205976319760974,0.046666666666666266
1 -> 2,7.002456000000005,7.002456000000002,7.002456000000003,7.002456000000003,7.002456000000003,9.930136612989092e-16,8.881784197001252e-16,84.0,84.0,84.0,84.0,84.0,0.0,0.0,36.030000000000015,36.02999999999998,36.03,36.03,36.030000000000015,1.507288760336424e-14,4.736951571734001e-15,7.95,5.67,6.7225,6.635,5.67,0.8749678565524566,-0.7600000000000001
1 -> 2,7.002456000000005,7.002456000000002,7.002456000000003,7.002456000000003,7.002456000000003,9.930136612989092e-16,8.881784197001252e-16,84.0,84.0,84.0,84.0,84.0,0.0,0.0,36.030000000000015,36.02999999999998,36.03,36.03,36.030000000000015,1.507288760336424e-14,4.736951571734001e-15,7.95,5.67,6.7225,6.635,5.67,0.8749678565524566,-0.7600000000000001
1 -> 2,7.002456000000005,7.002456000000002,7.002456000000003,7.002456000000003,7.002456000000003,9.930136612989092e-16,8.881784197001252e-16,84.0,84.0,84.0,84.0,84.0,0.0,0.0,36.030000000000015,36.02999999999998,36.03,36.03,36.030000000000015,1.507288760336424e-14,4.736951571734001e-15,15.97,6.18,10.4275,9.780000000000001,6.18,3.7185775170083524,3.2633333333333336
1 -> 2,7.002456000000005,7.002456000000002,7.002456000000003,7.002456000000003,7.002456000000003,9.930136612989092e-16,8.881784197001252e-16,84.0,84.0,84.0,84.0,84.0,0.0,0.0,36.030000000000015,36.02999999999998,36.03,36.03,36.030000000000015,1.507288760336424e-14,4.736951571734001e-15,15.97,6.18,10.4275,9.780000000000001,6.18,3.7185775170083524,3.2633333333333336
1 -> 2,7.149685000000003,7.149684999999995,7.149685,7.149685000000001,7.149685000000003,3.4684476073050936e-15,-8.881784197001252e-16,84.0,84.0,84.0,84.0,84.0,0.0,0.0,36.030000000000015,36.02999999999998,36.03,36.03,36.030000000000015,1.507288760336424e-14,4.736951571734001e-15,34.78,21.03,28.165,28.425,21.03,5.138406854269133,4.583333333333333
1 -> 2,7.149685000000003,7.149684999999995,7.149685,7.149685000000001,7.149685000000003,3.4684476073050936e-15,-8.881784197001252e-16,84.0,84.0,84.0,84.0,84.0,0.0,0.0,36.030000000000015,36.02999999999998,36.03,36.03,36.030000000000015,1.507288760336424e-14,4.736951571734001e-15,34.78,21.03,28.165,28.425,21.03,5.138406854269133,4.583333333333333
1 -> 2,7.149685000000003,7.149684999999995,7.149685,7.149685000000001,7.149685000000003,3.4684476073050936e-15,-8.881784197001252e-16,84.0,84.0,84.0,84.0,84.0,0.0,0.0,36.030000000000015,36.02999999999998,36.03,36.03,36.030000000000015,1.507288760336424e-14,4.736951571734001e-15,40.96,37.99,39.89,40.305,37.99,1.1358477010585522,0.8299999999999983
1 -> 2,7.149685000000003,7.149684999999995,7.149685,7.149685000000001,7.149685000000003,3.4684476073050936e-15,-8.881784197001252e-16,84.0,84.0,84.0,84.0,84.0,0.0,0.0,36.030000000000015,36.02999999999998,36.03,36.03,36.030000000000015,1.507288760336424e-14,4.736951571734001e-15,40.96,37.99,39.89,40.305,37.99,1.1358477010585522,0.8299999999999983
1 -> 2,7.149685000000003,7.149684999999995,7.149685,7.149685000000001,7.149685000000003,3.4684476073050936e-15,-8.881784197001252e-16,84.0,84.0,84.0,84.0,84.0,0.0,0.0,36.030000000000015,36.02999999999998,36.03,36.03,36.030000000000015,1.507288760336424e-14,4.736951571734001e-15,39.02,32.76,35.980000000000004,36.07,32.76,2.3295385809211253,-2.0866666666666682
1 -> 2,7.149685000000003,7.149684999999995,7.149685,7.149685000000001,7.149685000000003,3.4684476073050936e-15,-8.881784197001252e-16,84.0,84.0,84.0,84.0,84.0,0.0,0.0,36.030000000000015,36.02999999999998,36.03,36.03,36.030000000000015,1.507288760336424e-14,4.736951571734001e-15,39.02,32.76,35.980000000000004,36.07,32.76,2.3295385809211253,-2.0866666666666682
1 -> 2,7.149685000000003,7.149684999999995,7.149685,7.149685000000001,7.149685000000003,3.4684476073050936e-15,-8.881784197001252e-16,84.0,84.0,84.0,84.0,84.0,0.0,0.0,36.030000000000015,36.02999999999998,36.03,36.03,36.030000000000015,1.507288760336424e-14,4.736951571734001e-15,29.67,11.9,21.43,22.075,11.9,6.674889512194191,-5.923333333333335
1 -> 2,7.149685000000003,7.149684999999995,7.149685,7.149685000000001,7.149685000000003,3.4684476073050936e-15,-8.881784197001252e-16,84.0,84.0,84.0,84.0,84.0,0.0,0.0,36.030000000000015,36.02999999999998,36.03,36.03,36.030000000000015,1.507288760336424e-14,4.736951571734001e-15,29.67,11.9,21.43,22.075,11.9,6.674889512194191,-5.923333333333335
1 -> 2,7.2457040000000035,7.245703999999997,7.245704,7.245704000000001,7.2457040000000035,2.9790409838967277e-15,-2.9605947323337506e-16,84.75,84.75,84.75,84.75,84.75,0.0,0.0,36.000000000000014,36.0,36.00000000000001,36.000000000000014,36.000000000000014,6.153480596427404e-15,2.3684757858670005e-15,4.81,-11.12,-3.54,-3.9250000000000003,-11.12,5.927297023095772,-5.31
1 -> 2,7.2457040000000035,7.245703999999997,7.245704,7.245704000000001,7.2457040000000035,2.9790409838967277e-15,-2.9605947323337506e-16,84.75,84.75,84.75,84.75,84.75,0.0,0.0,36.000000000000014,36.0,36.00000000000001,36.000000000000014,36.000000000000014,6.153480596427404e-15,2.3684757858670005e-15,4.81,-11.12,-3.54,-3.9250000000000003,-11.12,5.927297023095772,-5.31
1 -> 2,7.2457040000000035,7.245703999999997,7.245704,7.245704000000001,7.2457040000000035,2.9790409838967277e-15,-2.9605947323337506e-16,84.75,84.75,84.75,84.75,84.75,0.0,0.0,36.000000000000014,36.0,36.00000000000001,36.000000000000014,36.000000000000014,6.153480596427404e-15,2.3684757858670005e-15,-16.25,-35.43,-25.802500000000002,-25.765,-35.43,7.191284221194431,-6.3933333333333335
1 -> 2,7.2457040000000035,7.245703999999997,7.245704,7.245704000000001,7.2457040000000035,2.9790409838967277e-15,-2.9605947323337506e-16,84.75,84.75,84.75,84.75,84.75,0.0,0.0,36.000000000000014,36.0,36.00000000000001,36.000000000000014,36.000000000000014,6.153480596427404e-15,2.3684757858670005e-15,-16.25,-35.43,-25.802500000000002,-25.765,-35.43,7.191284221194431,-6.3933333333333335
1 -> 2,7.2457040000000035,7.245703999999997,7.245704,7.245704000000001,7.2457040000000035,2.9790409838967277e-15,-2.9605947323337506e-16,84.75,84.75,84.75,84.75,84.75,0.0,0.0,36.000000000000014,36.0,36.00000000000001,36.000000000000014,36.000000000000014,6.153480596427404e-15,2.3684757858670005e-15,-39.45,-41.79,-40.61,-40.599999999999994,-41.79,0.9641317337376659,0.14999999999999858
1 -> 2,7.2457040000000035,7.245703999999997,7.245704,7.245704000000001,7.2457040000000035,2.9790409838967277e-15,-2.9605947323337506e-16,84.75,84.75,84.75,84.75,84.75,0.0,0.0,36.000000000000014,36.0,36.00000000000001,36.000000000000014,36.000000000000014,6.153480596427404e-15,2.3684757858670005e-15,-39.45,-41.79,-40.61,-40.599999999999994,-41.79,0.9641317337376659,0.14999999999999858
1 -> 2,7.2457040000000035,7.245703999999997,7.245704,7.245704000000001,7.2457040000000035,2.9790409838967277e-15,-2.9605947323337506e-16,84.75,84.75,84.75,84.75,84.75,0.0,0.0,36.000000000000014,36.0,36.00000000000001,36.000000000000014,36.000000000000014,6.153480596427404e-15,2.3684757858670005e-15,-36.55,-38.28,-37.305,-37.195,-38.28,0.6650751837198572,-0.25
1 -> 2,7.2457040000000035,7.245703999999997,7.245704,7.245704000000001,7.2457040000000035,2.9790409838967277e-15,-2.9605947323337506e-16,84.75,84.75,84.75,84.75,84.75,0.0,0.0,36.000000000000014,36.0,36.00000000000001,36.000000000000014,36.000000000000014,6.153480596427404e-15,2.3684757858670005e-15,-36.55,-38.28,-37.305,-37.195,-38.28,0.6650751837198572,-0.25
1 -> 2,7.268749000000003,7.268748999999995,7.268749,7.268749,7.268749000000003,3.794299872214038e-15,2.9605947323337506e-16,84.75,84.75,84.75,84.75,84.75,0.0,0.0,36.000000000000014,36.0,36.00000000000001,36.000000000000014,36.000000000000014,6.153480596427404e-15,2.3684757858670005e-15,-40.33,-46.69,-43.58,-43.650000000000006,-46.69,2.3780559286946974,-2.1199999999999997
1 -> 2,7.268749000000003,7.268748999999995,7.268749,7.268749,7.268749000000003,3.794299872214038e-15,2.9605947323337506e-16,84.75,84.75,84.75,84.75,84.75,0.0,0.0,36.000000000000014,36.0,36.00000000000001,36.000000000000014,36.000000000000014,6.153480596427404e-15,2.3684757858670005e-15,-40.33,-46.69,-43.58,-43.650000000000006,-46.69,2.3780559286946974,-2.1199999999999997
1 -> 2,7.268749000000003,7.268748999999995,7.268749,7.268749,7.268749000000003,3.794299872214038e-15,2.9605947323337506e-16,84.75,84.75,84.75,84.75,84.75,0.0,0.0,36.000000000000014,36.0,36.00000000000001,36.000000000000014,36.000000000000014,6.153480596427404e-15,2.3684757858670005e-15,-45.55,-48.87,-47.692499999999995,-48.175,-48.87,1.2692197406280765,0.8833333333333352
1 -> 2,7.268749000000003,7.268748999999995,7.268749,7.268749,7.268749000000003,3.794299872214038e-15,2.9605947323337506e-16,84.75,84.75,84.75,84.75,84.75,0.0,0.0,36.000000000000014,36.0,36.00000000000001,36.000000000000014,36.000000000000014,6.153480596427404e-15,2.3684757858670005e-15,-45.55,-48.87,-47.692499999999995,-48.175,-48.87,1.2692197406280765,0.8833333333333352
1 -> 2,7.268749000000003,7.268748999999995,7.268749,7.268749,7.268749000000003,3.794299872214038e-15,2.9605947323337506e-16,84.75,84.75,84.75,84.75,84.75,0.0,0.0,36.000000000000014,36.0,36.00000000000001,36.000000000000014,36.000000000000014,6.153480596427404e-15,2.3684757858670005e-15,-19.87,-40.91,-30.645,-30.9,-40.91,7.8802300093334825,7.013333333333332
1 -> 2,7.268749000000003,7.268748999999995,7.268749,7.268749,7.268749000000003,3.794299872214038e-15,2.9605947323337506e-16,84.75,84.75,84.75,84.75,84.75,0.0,0.0,36.000000000000014,36.0,36.00000000000001,36.000000000000014,36.000000000000014,6.153480596427404e-15,2.3684757858670005e-15,-19.87,-40.91,-30.645,-30.9,-40.91,7.8802300093334825,7.013333333333332
1 -> 2,7.268749000000003,7.268748999999995,7.268749,7.268749,7.268749000000003,3.794299872214038e-15,2.9605947323337506e-16,84.75,84.75,84.75,84.75,84.75,0.0,0.0,36.000000000000014,36.0,36.00000000000001,36.000000000000014,36.000000000000014,6.153480596427404e-15,2.3684757858670005e-15,-0.11,-13.21,-6.0975,-5.535,-13.21,4.90812273175804,4.366666666666667
1 -> 2,7.268749000000003,7.268748999999995,7.268749,7.268749,7.268749000000003,3.794299872214038e-15,2.9605947323337506e-16,84.75,84.75,84.75,84.75,84.75,0.0,0.0,36.000000000000014,36.0,36.00000000000001,36.000000000000014,36.000000000000014,6.153480596427404e-15,2.3684757858670005e-15,-0.11,-13.21,-6.0975,-5.535,-13.21,4.90812273175804,4.366666666666667
1 -> 2,7.2457040000000035,7.245703999999997,7.245704,7.245704000000001,7.2457040000000035,2.9790409838967277e-15,-2.9605947323337506e-16,84.75,84.75,84.75,84.75,84.75,0.0,0.0,36.000000000000014,36.0,36.00000000000001,36.000000000000014,36.000000000000014,6.153480596427404e-15,2.3684757858670005e-15,6.53,2.35,4.6675,4.895,2.35,1.5717565810264642,1.3933333333333333
1 -> 2,7.2457040000000035,7.245703999999997,7.245704,7.245704000000001,7.2457040000000035,2.9790409838967277e-15,-2.9605947323337506e-16,84.75,84.75,84.75,84.75,84.75,0.0,0.0,36.000000000000014,36.0,36.00000000000001,36.000000000000014,36.000000000000014,6.153480596427404e-15,2.3684757858670005e-15,6.53,2.35,4.6675,4.895,2.35,1.5717565810264642,1.3933333333333333
1 -> 2,7.2457040000000035,7.245703999999997,7.245704,7.245704000000001,7.2457040000000035,2.9790409838967277e-15,-2.9605947323337506e-16,84.75,84.75,84.75,84.75,84.75,0.0,0.0,36.000000000000014,36.0,36.00000000000001,36.000000000000014,36.000000000000014,6.153480596427404e-15,2.3684757858670005e-15,7.4,7.1,7.2924999999999995,7.335,7.1,0.11691342951089946,0.06666666666666672
1 -> 2,7.2457040000000035,7.245703999999997,7.245704,7.245704000000001,7.2457040000000035,2.9790409838967277e-15,-2.9605947323337506e-16,84.75,84.75,84.75,84.75,84.75,0.0,0.0,36.000000000000014,36.0,36.00000000000001,36.000000000000014,36.000000000000014,6.153480596427404e-15,2.3684757858670005e-15,7.4,7.1,7.2924999999999995,7.335,7.1,0.11691342951089946,0.06666666666666672
1 -> 2,7.2457040000000035,7.245703999999997,7.245704,7.245704000000001,7.2457040000000035,2.9790409838967277e-15,-2.9605947323337506e-16,84.75,84.75,84.75,84.75,84.75,0.0,0.0,36.000000000000014,36.0,36.00000000000001,36.000000000000014,36.000000000000014,6.153480596427404e-15,2.3684757858670005e-15,7.11,6.38,6.75,6.755,6.38,0.2728552729928452,-0.24333333333333348
1 -> 2,7.2457040000000035,7.245703999999997,7.245704,7.245704000000001,7.2457040000000035,2.9790409838967277e-15,-2.9605947323337506e-16,84.75,84.75,84.75,84.75,84.75,0.0,0.0,36.000000000000014,36.0,36.00000000000001,36.000000000000014,36.000000000000014,6.153480596427404e-15,2.3684757858670005e-15,7.11,6.38,6.75,6.755,6.38,0.2728552729928452,-0.24333333333333348
1 -> 2,7.2457040000000035,7.245703999999997,7.245704,7.245704000000001,7.2457040000000035,2.9790409838967277e-15,-2.9605947323337506e-16,84.75,84.75,84.75,84.75,84.75,0.0,0.0,36.000000000000014,36.0,36.00000000000001,36.000000000000014,36.000000000000014,6.153480596427404e-15,2.3684757858670005e-15,6.13,4.75,5.5175,5.595,4.75,0.516883690978928,-0.45999999999999996
1 -> 2,7.2457040000000035,7.245703999999997,7.245704,7.245704000000001,7.2457040000000035,2.9790409838967277e-15,-2.9605947323337506e-16,84.75,84.75,84.75,84.75,84.75,0.0,0.0,36.000000000000014,36.0,36.00000000000001,36.000000000000014,36.000000000000014,6.153480596427404e-15,2.3684757858670005e-15,6.13,4.75,5.5175,5.595,4.75,0.516883690978928,-0.45999999999999996
1 -> 2,7.199615000000003,7.199614999999998,7.199615000000001,7.199615000000001,7.199615000000003,2.3498992183808826e-15,5.921189464667501e-16,84.75,84.75,84.75,84.75,84.75,0.0,0.0,36.000000000000014,36.0,36.00000000000001,36.000000000000014,36.000000000000014,6.153480596427404e-15,2.3684757858670005e-15,3.85,-0.41,1.8324999999999998,1.9449999999999998,-0.41,1.5949666924421964,-1.42
1 -> 2,7.199615000000003,7.199614999999998,7.199615000000001,7.199615000000001,7.199615000000003,2.3498992183808826e-15,5.921189464667501e-16,84.75,84.75,84.75,84.75,84.75,0.0,0.0,36.000000000000014,36.0,36.00000000000001,36.000000000000014,36.000000000000014,6.153480596427404e-15,2.3684757858670005e-15,3.85,-0.41,1.8324999999999998,1.9449999999999998,-0.41,1.5949666924421964,-1.42
1 -> 2,7.199615000000003,7.199614999999998,7.199615000000001,7.199615000000001,7.199615000000003,2.3498992183808826e-15,5.921189464667501e-16,84.75,84.75,84.75,84.75,84.75,0.0,0.0,36.000000000000014,36.0,36.00000000000001,36.000000000000014,36.000000000000014,6.153480596427404e-15,2.3684757858670005e-15,-2.13,-7.52,-4.8025,-4.78,-7.52,2.0070049202729923,-1.7966666666666666
1 -> 2,7.199615000000003,7.199614999999998,7.199615000000001,7.199615000000001,7.199615000000003,2.3498992183808826e-15,5.921189464667501e-16,84.75,84.75,84.75,84.75,84.75,0.0,0.0,36.000000000000014,36.0,36.00000000000001,36.000000000000014,36.000000000000014,6.153480596427404e-15,2.3684757858670005e-15,-2.13,-7.52,-4.8025,-4.78,-7.52,2.0070049202729923,-1.7966666666666666
1 -> 2,7.199615000000003,7.199614999999998,7.199615000000001,7.199615000000001,7.199615000000003,2.3498992183808826e-15,5.921189464667501e-16,84.75,84.75,84.75,84.75,84.75,0.0,0.0,36.000000000000014,36.0,36.00000000000001,36.000000000000014,36.000000000000014,6.153480596427404e-15,2.3684757858670005e-15,-9.5,-15.22,-12.4675,-12.575,-15.22,2.1462452679039274,-1.906666666666667
1 -> 2,7.199615000000003,7.199614999999998,7.199615000000001,7.199615000000001,7.199615000000003,2.3498992183808826e-15,5.921189464667501e-16,84.75,84.75,84.75,84.75,84.75,0.0,0.0,36.000000000000014,36.0,36.00000000000001,36.000000000000014,36.000000000000014,6.153480596427404e-15,2.3684757858670005e-15,-9.5,-15.22,-12.4675,-12.575,-15.22,2.1462452679039274,-1.906666666666667
1 -> 2,7.199615000000003,7.199614999999998,7.199615000000001,7.199615000000001,7.199615000000003,2.3498992183808826e-15,5.921189464667501e-16,84.75,84.75,84.75,84.75,84.75,0.0,0.0,36.000000000000014,36.0,36.00000000000001,36.000000000000014,36.000000000000014,6.153480596427404e-15,2.3684757858670005e-15,-12.09,-16.13,-14.7025,-15.295,-16.13,1.6204532544939394,1.3466666666666665
1 -> 2,7.199615000000003,7.199614999999998,7.199615000000001,7.199615000000001,7.199615000000003,2.3498992183808826e-15,5.921189464667501e-16,84.75,84.75,84.75,84.75,84.75,0.0,0.0,36.000000000000014,36.0,36.00000000000001,36.000000000000014,36.000000000000014,6.153480596427404e-15,2.3684757858670005e-15,-12.09,-16.13,-14.7025,-15.295,-16.13,1.6204532544939394,1.3466666666666665
1 -> 2,7.127921000000003,7.127920999999997,7.127921000000001,7.1279210000000015,7.127921000000003,2.6272671962866384e-15,-8.881784197001252e-16,85.33,85.33,85.33,85.33,85.33,0.0,0.0,36.030000000000015,36.02999999999998,36.03,36.03,36.030000000000015,1.507288760336424e-14,4.736951571734001e-15,2.14,-8.71,-3.16,-3.035,-8.71,4.060634186922038,3.616666666666667
1 -> 2,7.127921000000003,7.127920999999997,7.127921000000001,7.1279210000000015,7.127921000000003,2.6272671962866384e-15,-8.881784197001252e-16,85.33,85.33,85.33,85.33,85.33,0.0,0.0,36.030000000000015,36.02999999999998,36.03,36.03,36.030000000000015,1.507288760336424e-14,4.736951571734001e-15,2.14,-8.71,-3.16,-3.035,-8.71,4.060634186922038,3.616666666666667
1 -> 2,7.127921000000003,7.127920999999997,7.127921000000001,7.1279210000000015,7.127921000000003,2.6272671962866384e-15,-8.881784197001252e-16,85.33,85.33,85.33,85.33,85.33,0.0,0.0,36.030000000000015,36.02999999999998,36.03,36.03,36.030000000000015,1.507288760336424e-14,4.736951571734001e-15,8.66,4.75,6.99,7.275,4.75,1.4790368487634107,1.3033333333333335
1 -> 2,7.127921000000003,7.127920999999997,7.127921000000001,7.1279210000000015,7.127921000000003,2.6272671962866384e-15,-8.881784197001252e-16,85.33,85.33,85.33,85.33,85.33,0.0,0.0,36.030000000000015,36.02999999999998,36.03,36.03,36.030000000000015,1.507288760336424e-14,4.736951571734001e-15,8.66,4.75,6.99,7.275,4.75,1.4790368487634107,1.3033333333333335
1 -> 2,7.127921000000003,7.127920999999997,7.127921000000001,7.1279210000000015,7.127921000000003,2.6272671962866384e-15,-8.881784197001252e-16,85.33,85.33,85.33,85.33,85.33,0.0,0.0,36.030000000000015,36.02999999999998,36.03,36.03,36.030000000000015,1.507288760336424e-14,4.736951571734001e-15,9.19,8.79,9.03,9.07,8.79,0.14713938969562185,-0.09000000000000045
1 -> 2,7.127921000000003,7.127920999999997,7.127921000000001,7.1279210000000015,7.127921000000003,2.6272671962866384e-15,-8.881784197001252e-16,85.33,85.33,85.33,85.33,85.33,0.0,0.0,36.030000000000015,36.02999999999998,36.03,36.03,36.030000000000015,1.507288760336424e-14,4.736951571734001e-15,9.19,8.79,9.03,9.07,8.79,0.14713938969562185,-0.09000000000000045
1 -> 2,7.127921000000003,7.127920999999997,7.127921000000001,7.1279210000000015,7.127921000000003,2.6272671962866384e-15,-8.881784197001252e-16,85.33,85.33,85.33,85.33,85.33,0.0,0.0,36.030000000000015,36.02999999999998,36.03,36.03,36.030000000000015,1.507288760336424e-14,4.736951571734001e-15,8.38,7.12,7.745000000000001,7.74,7.12,0.4696008943773427,-0.4200000000000002
1 -> 2,7.127921000000003,7.127920999999997,7.127921000000001,7.1279210000000015,7.127921000000003,2.6272671962866384e-15,-8.881784197001252e-16,85.33,85.33,85.33,85.33,85.33,0.0,0.0,36.030000000000015,36.02999999999998,36.03,36.03,36.030000000000015,1.507288760336424e-14,4.736951571734001e-15,8.38,7.12,7.745000000000001,7.74,7.12,0.4696008943773427,-0.4200000000000002
1 -> 2,7.061348000000003,7.061348000000001,7.061348000000002,7.061348000000002,7.061348000000003,1.1749496091904413e-15,2.9605947323337506e-16,85.33,85.33,85.33,85.33,85.33,0.0,0.0,36.030000000000015,36.02999999999998,36.03,36.03,36.030000000000015,1.507288760336424e-14,4.736951571734001e-15,6.61,4.08,5.4025,5.46,4.08,0.9511407624531714,-0.8433333333333334
1 -> 2,7.061348000000003,7.061348000000001,7.061348000000002,7.061348000000002,7.061348000000003,1.1749496091904413e-15,2.9605947323337506e-16,85.33,85.33,85.33,85.33,85.33,0.0,0.0,36.030000000000015,36.02999999999998,36.03,36.03,36.030000000000015,1.507288760336424e-14,4.736951571734001e-15,6.61,4.08,5.4025,5.46,4.08,0.9511407624531714,-0.8433333333333334
1 -> 2,7.061348000000003,7.061348000000001,7.061348000000002,7.061348000000002,7.061348000000003,1.1749496091904413e-15,2.9605947323337506e-16,85.33,85.33,85.33,85.33,85.33,0.0,0.0,36.030000000000015,36.02999999999998,36.03,36.03,36.030000000000015,1.507288760336424e-14,4.736951571734001e-15,3.35,3.03,3.205,3.2199999999999998,3.03,0.14221462653327893,-0.0033333333333334103
1 -> 2,7.061348000000003,7.061348000000001,7.061348000000002,7.061348000000002,7.061348000000003,1.1749496091904413e-15,2.9605947323337506e-16,85.33,85.33,85.33,85.33,85.33,0.0,0.0,36.030000000000015,36.02999999999998,36.03,36.03,36.030000000000015,1.507288760336424e-14,4.736951571734001e-15,3.35,3.03,3.205,3.2199999999999998,3.03,0.14221462653327893,-0.0033333333333334103
1 -> 2,7.061348000000003,7.061348000000001,7.061348000000002,7.061348000000002,7.061348000000003,1.1749496091904413e-15,2.9605947323337506e-16,85.33,85.33,85.33,85.33,85.33,0.0,0.0,36.030000000000015,36.02999999999998,36.03,36.03,36.030000000000015,1.507288760336424e-14,4.736951571734001e-15,3.42,0.83,2.3525,2.58,0.83,0.9980324393525493,-0.8633333333333333
1 -> 2,7.061348000000003,7.061348000000001,7.061348000000002,7.061348000000002,7.061348000000003,1.1749496091904413e-15,2.9605947323337506e-16,85.33,85.33,85.33,85.33,85.33,0.0,0.0,36.030000000000015,36.02999999999998,36.03,36.03,36.030000000000015,1.507288760336424e-14,4.736951571734001e-15,3.42,0.83,2.3525,2.58,0.83,0.9980324393525493,-0.8633333333333333
1 -> 2,7.061348000000003,7.061348000000001,7.061348000000002,7.061348000000002,7.061348000000003,1.1749496091904413e-15,2.9605947323337506e-16,85.33,85.33,85.33,85.33,85.33,0.0,0.0,36.030000000000015,36.02999999999998,36.03,36.03,36.030000000000015,1.507288760336424e-14,4.736951571734001e-15,-0.56,-3.7,-2.2125000000000004,-2.295,-3.7,1.16908885462141,-1.0466666666666666
1 -> 2,7.061348000000003,7.061348000000001,7.061348000000002,7.061348000000002,7.061348000000003,1.1749496091904413e-15,2.9605947323337506e-16,85.33,85.33,85.33,85.33,85.33,0.0,0.0,36.030000000000015,36.02999999999998,36.03,36.03,36.030000000000015,1.507288760336424e-14,4.736951571734001e-15,-0.56,-3.7,-2.2125000000000004,-2.295,-3.7,1.16908885462141,-1.0466666666666666
1 -> 2,6.992214000000003,6.992213999999998,6.9922140000000015,6.992214000000002,6.992214000000003,2.220446049250313e-15,8.881784197001252e-16,85.33,85.33,85.33,85.33,85.33,0.0,0.0,36.030000000000015,36.02999999999998,36.03,36.03,36.030000000000015,1.507288760336424e-14,4.736951571734001e-15,-4.71,-10.08,-7.182500000000001,-6.970000000000001,-10.08,2.013645636650103,-1.79
1 -> 2,6.992214000000003,6.992213999999998,6.9922140000000015,6.992214000000002,6.992214000000003,2.220446049250313e-15,8.881784197001252e-16,85.33,85.33,85.33,85.33,85.33,0.0,0.0,36.030000000000015,36.02999999999998,36.03,36.03,36.030000000000015,1.507288760336424e-14,4.736951571734001e-15,-4.71,-10.08,-7.182500000000001,-6.970000000000001,-10.08,2.013645636650103,-1.79
1 -> 2,6.992214000000003,6.992213999999998,6.9922140000000015,6.992214000000002,6.992214000000003,2.220446049250313e-15,8.881784197001252e-16,85.33,85.33,85.33,85.33,85.33,0.0,0.0,36.030000000000015,36.02999999999998,36.03,36.03,36.030000000000015,1.507288760336424e-14,4.736951571734001e-15,-12.49,-17.2,-15.220000000000002,-15.595,-17.2,1.8084938484827644,-1.5699999999999996
1 -> 2,6.992214000000003,6.992213999999998,6.9922140000000015,6.992214000000002,6.992214000000003,2.220446049250313e-15,8.881784197001252e-16,85.33,85.33,85.33,85.33,85.33,0.0,0.0,36.030000000000015,36.02999999999998,36.03,36.03,36.030000000000015,1.507288760336424e-14,4.736951571734001e-15,-12.49,-17.2,-15.220000000000002,-15.595,-17.2,1.8084938484827644,-1.5699999999999996
1 -> 2,6.992214000000003,6.992213999999998,6.9922140000000015,6.992214000000002,6.992214000000003,2.220446049250313e-15,8.881784197001252e-16,85.33,85.33,85.33,85.33,85.33,0.0,0.0,36.030000000000015,36.02999999999998,36.03,36.03,36.030000000000015,1.507288760336424e-14,4.736951571734001e-15,-9.42,-16.79,-13.5175,-13.93,-16.79,2.7890802695512367,2.4566666666666666
1 -> 2,6.992214000000003,6.992213999999998,6.9922140000000015,6.992214000000002,6.992214000000003,2.220446049250313e-15,8.881784197001252e-16,85.33,85.33,85.33,85.33,85.33,0.0,0.0,36.030000000000015,36.02999999999998,36.03,36.03,36.030000000000015,1.507288760336424e-14,4.736951571734001e-15,-9.42,-16.79,-13.5175,-13.93,-16.79,2.7890802695512367,2.4566666666666666
1 -> 2,6.992214000000003,6.992213999999998,6.9922140000000015,6.992214000000002,6.992214000000003,2.220446049250313e-15,8.881784197001252e-16,85.33,85.33,85.33,85.33,85.33,0.0,0.0,36.030000000000015,36.02999999999998,36.03,36.03,36.030000000000015,1.507288760336424e-14,4.736951571734001e-15,5.06,-5.84,-0.3350000000000002,-0.28,-5.84,4.067809607147316,3.6333333333333333
1 -> 2,6.992214000000003,6.992213999999998,6.9922140000000015,6.992214000000002,6.992214000000003,2.220446049250313e-15,8.881784197001252e-16,85.33,85.33,85.33,85.33,85.33,0.0,0.0,36.030000000000015,36.02999999999998,36.03,36.03,36.030000000000015,1.507288760336424e-14,4.736951571734001e-15,5.06,-5.84,-0.3350000000000002,-0.28,-5.84,4.067809607147316,3.6333333333333333
1 -> 2,6.9448450000000035,6.9448449999999955,6.944845000000001,6.944845000000001,6.9448450000000035,3.3820826609804605e-15,1.1842378929335002e-15,85.33,85.33,85.33,85.33,85.33,0.0,0.0,36.030000000000015,36.02999999999998,36.03,36.03,36.030000000000015,1.507288760336424e-14,4.736951571734001e-15,12.36,8.18,10.8075,11.344999999999999,8.18,1.6540159461141843,1.3933333333333333
1 -> 2,6.9448450000000035,6.9448449999999955,6.944845000000001,6.944845000000001,6.9448450000000035,3.3820826609804605e-15,1.1842378929335002e-15,85.33,85.33,85.33,85.33,85.33,0.0,0.0,36.030000000000015,36.02999999999998,36.03,36.03,36.030000000000015,1.507288760336424e-14,4.736951571734001e-15,12.36,8.18,10.8075,11.344999999999999,8.18,1.6540159461141843,1.3933333333333333
1 -> 2,6.9448450000000035,6.9448449999999955,6.944845000000001,6.944845000000001,6.9448450000000035,3.3820826609804605e-15,1.1842378929335002e-15,85.33,85.33,85.33,85.33,85.33,0.0,0.0,36.030000000000015,36.02999999999998,36.03,36.03,36.030000000000015,1.507288760336424e-14,4.736951571734001e-15,11.6,8.16,9.719999999999999,9.56,8.16,1.3150095056690654,-1.1466666666666665
1 -> 2,6.9448450000000035,6.9448449999999955,6.944845000000001,6.944845000000001,6.9448450000000035,3.3820826609804605e-15,1.1842378929335002e-15,85.33,85.33,85.33,85.33,85.33,0.0,0.0,36.030000000000015,36.02999999999998,36.03,36.03,36.030000000000015,1.507288760336424e-14,4.736951571734001e-15,11.6,8.16,9.719999999999999,9.56,8.16,1.3150095056690654,-1.1466666666666665
1 -> 2,6.9448450000000035,6.9448449999999955,6.944845000000001,6.944845000000001,6.9448450000000035,3.3820826609804605e-15,1.1842378929335002e-15,85.33,85.33,85.33,85.33,85.33,0.0,0.0,36.030000000000015,36.02999999999998,36.03,36.03,36.030000000000015,1.507288760336424e-14,4.736951571734001e-15,10.09,8.28,9.315000000000001,9.445,8.28,0.7130392696058193,0.6033333333333335
1 -> 2,6.9448450000000035,6.9448449999999955,6.944845000000001,6.944845000000001,6.9448450000000035,3.3820826609804605e-15,1.1842378929335002e-15,85.33,85.33,85.33,85.33,85.33,0.0,0.0,36.030000000000015,36.02999999999998,36.03,36.03,36.030000000000015,1.507288760336424e-14,4.736951571734001e-15,10.09,8.28,9.315000000000001,9.445,8.28,0.7130392696058193,0.6033333333333335
1 -> 2,6.9448450000000035,6.9448449999999955,6.944845000000001,6.944845000000001,6.9448450000000035,3.3820826609804605e-15,1.1842378929335002e-15,85.33,85.33,85.33,85.33,85.33,0.0,0.0,36.030000000000015,36.02999999999998,36.03,36.03,36.030000000000015,1.507288760336424e-14,4.736951571734001e-15,9.48,5.89,7.574999999999999,7.465,5.89,1.368073462939765,-1.196666666666667
1 -> 2,6.9448450000000035,6.9448449999999955,6.944845000000001,6.944845000000001,6.9448450000000035,3.3820826609804605e-15,1.1842378929335002e-15,85.33,85.33,85.33,85.33,85.33,0.0,0.0,36.030000000000015,36.02999999999998,36.03,36.03,36.030000000000015,1.507288760336424e-14,4.736951571734001e-15,9.48,5.89,7.574999999999999,7.465,5.89,1.368073462939765,-1.196666666666667
1 -> 2,6.907718000000004,6.907717999999999,6.907718000000001,6.907718000000003,6.907718000000004,2.082963028648268e-15,5.921189464667501e-16,85.9,85.9,85.9,85.9,85.9,0.0,0.0,36.000000000000014,36.0,36.00000000000001,36.000000000000014,36.000000000000014,6.153480596427404e-15,2.3684757858670005e-15,8.16,5.92,7.11,7.18,5.92,0.8672658185354707,0.7466666666666667
1 -> 2,6.907718000000004,6.907717999999999,6.907718000000001,6.907718000000003,6.907718000000004,2.082963028648268e-15,5.921189464667501e-16,85.9,85.9,85.9,85.9,85.9,0.0,0.0,36.000000000000014,36.0,36.00000000000001,36.000000000000014,36.000000000000014,6.153480596427404e-15,2.3684757858670005e-15,8.16,5.92,7.11,7.18,5.92,0.8672658185354707,0.7466666666666667
1 -> 2,6.907718000000004,6.907717999999999,6.907718000000001,6.907718000000003,6.907718000000004,2.082963028648268e-15,5.921189464667501e-16,85.9,85.9,85.9,85.9,85.9,0.0,0.0,36.000000000000014,36.0,36.00000000000001,36.000000000000014,36.000000000000014,6.153480596427404e-15,2.3684757858670005e-15,7.72,2.34,5.1975,5.365,2.34,2.032539975006642,-1.7933333333333332
1 -> 2,6.907718000000004,6.907717999999999,6.907718000000001,6.907718000000003,6.907718000000004,2.082963028648268e-15,5.921189464667501e-16,85.9,85.9,85.9,85.9,85.9,0.0,0.0,36.000000000000014,36.0,36.00000000000001,36.000000000000014,36.000000000000014,6.153480596427404e-15,2.3684757858670005e-15,7.72,2.34,5.1975,5.365,2.34,2.032539975006642,-1.7933333333333332
1 -> 2,6.907718000000004,6.907717999999999,6.907718000000001,6.907718000000003,6.907718000000004,2.082963028648268e-15,5.921189464667501e-16,85.9,85.9,85.9,85.9,85.9,0.0,0.0,36.000000000000014,36.0,36.00000000000001,36.000000000000014,36.000000000000014,6.153480596427404e-15,2.3684757858670005e-15,0.64,-2.14,-0.87,-0.99,-2.14,1.033755290192026,-0.9266666666666667
1 -> 2,6.907718000000004,6.907717999999999,6.907718000000001,6.907718000000003,6.907718000000004,2.082963028648268e-15,5.921189464667501e-16,85.9,85.9,85.9,85.9,85.9,0.0,0.0,36.000000000000014,36.0,36.00000000000001,36.000000000000014,36.000000000000014,6.153480596427404e-15,2.3684757858670005e-15,0.64,-2.14,-0.87,-0.99,-2.14,1.033755290192026,-0.9266666666666667
1 -> 2,6.907718000000004,6.907717999999999,6.907718000000001,6.907718000000003,6.907718000000004,2.082963028648268e-15,5.921189464667501e-16,85.9,85.9,85.9,85.9,85.9,0.0,0.0,36.000000000000014,36.0,36.00000000000001,36.000000000000014,36.000000000000014,6.153480596427404e-15,2.3684757858670005e-15,-3.04,-7.76,-5.2225,-5.045,-7.76,1.7698357974682284,-1.5733333333333333
1 -> 2,6.907718000000004,6.907717999999999,6.907718000000001,6.907718000000003,6.907718000000004,2.082963028648268e-15,5.921189464667501e-16,85.9,85.9,85.9,85.9,85.9,0.0,0.0,36.000000000000014,36.0,36.00000000000001,36.000000000000014,36.000000000000014,6.153480596427404e-15,2.3684757858670005e-15,-3.04,-7.76,-5.2225,-5.045,-7.76,1.7698357974682284,-1.5733333333333333
1 -> 2,6.874431000000004,6.874430999999999,6.874431000000001,6.874431000000001,6.874430999999999,2.6645352591003757e-15,0.0,85.9,85.9,85.9,85.9,85.9,0.0,0.0,36.000000000000014,36.0,36.00000000000001,36.000000000000014,36.000000000000014,6.153480596427404e-15,2.3684757858670005e-15,-9.89,-15.1,-12.735000000000001,-12.975,-15.1,1.9717314725895105,-1.7366666666666664
1 -> 2,6.874431000000004,6.874430999999999,6.874431000000001,6.874431000000001,6.874430999999999,2.6645352591003757e-15,0.0,85.9,85.9,85.9,85.9,85.9,0.0,0.0,36.000000000000014,36.0,36.00000000000001,36.000000000000014,36.000000000000014,6.153480596427404e-15,2.3684757858670005e-15,-9.89,-15.1,-12.735000000000001,-12.975,-15.1,1.9717314725895105,-1.7366666666666664
1 -> 2,6.874431000000004,6.874430999999999,6.874431000000001,6.874431000000001,6.874430999999999,2.6645352591003757e-15,0.0,85.9,85.9,85.9,85.9,85.9,0.0,0.0,36.000000000000014,36.0,36.00000000000001,36.000000000000014,36.000000000000014,6.153480596427404e-15,2.3684757858670005e-15,-9.26,-15.27,-12.737499999999999,-13.21,-15.27,2.2998953780552713,2.0033333333333334
1 -> 2,6.874431000000004,6.874430999999999,6.874431000000001,6.874431000000001,6.874430999999999,2.6645352591003757e-15,0.0,85.9,85.9,85.9,85.9,85.9,0.0,0.0,36.000000000000014,36.0,36.00000000000001,36.000000000000014,36.000000000000014,6.153480596427404e-15,2.3684757858670005e-15,-9.26,-15.27,-12.737499999999999,-13.21,-15.27,2.2998953780552713,2.0033333333333334
1 -> 2,6.874431000000004,6.874430999999999,6.874431000000001,6.874431000000001,6.874430999999999,2.6645352591003757e-15,0.0,85.9,85.9,85.9,85.9,85.9,0.0,0.0,36.000000000000014,36.0,36.00000000000001,36.000000000000014,36.000000000000014,6.153480596427404e-15,2.3684757858670005e-15,3.95,-5.95,-0.9375,-0.875,-5.95,3.6934088251911676,3.3000000000000003
1 -> 2,6.874431000000004,6.874430999999999,6.874431000000001,6.874431000000001,6.874430999999999,2.6645352591003757e-15,0.0,85.9,85.9,85.9,85.9,85.9,0.0,0.0,36.000000000000014,36.0,36.00000000000001,36.000000000000014,36.000000000000014,6.153480596427404e-15,2.3684757858670005e-15,3.95,-5.95,-0.9375,-0.875,-5.95,3.6934088251911676,3.3000000000000003
1 -> 2,6.874431000000004,6.874430999999999,6.874431000000001,6.874431000000001,6.874430999999999,2.6645352591003757e-15,0.0,85.9,85.9,85.9,85.9,85.9,0.0,0.0,36.000000000000014,36.0,36.00000000000001,36.000000000000014,36.000000000000014,6.153480596427404e-15,2.3684757858670005e-15,12.6,6.84,10.02,10.32,6.84,2.171957642312575,1.92
1 -> 2,6.874431000000004,6.874430999999999,6.874431000000001,6.874431000000001,6.874430999999999,2.6645352591003757e-15,0.0,85.9,85.9,85.9,85.9,85.9,0.0,0.0,36.000000000000014,36.0,36.00000000000001,36.000000000000014,36.000000000000014,6.153480596427404e-15,2.3684757858670005e-15,12.6,6.84,10.02,10.32,6.84,2.171957642312575,1.92
1 -> 2,6.852667000000004,6.8526669999999985,6.852667000000002,6.852667000000002,6.852667000000004,2.3498992183808826e-15,-5.921189464667501e-16,85.9,85.9,85.9,85.9,85.9,0.0,0.0,36.000000000000014,36.0,36.00000000000001,36.000000000000014,36.000000000000014,6.153480596427404e-15,2.3684757858670005e-15,13.34,12.88,13.1475,13.185,12.88,0.1699080633754617,-0.11666666666666654
1 -> 2,6.852667000000004,6.8526669999999985,6.852667000000002,6.852667000000002,6.852667000000004,2.3498992183808826e-15,-5.921189464667501e-16,85.9,85.9,85.9,85.9,85.9,0.0,0.0,36.000000000000014,36.0,36.00000000000001,36.000000000000014,36.000000000000014,6.153480596427404e-15,2.3684757858670005e-15,13.34,12.88,13.1475,13.185,12.88,0.1699080633754617,-0.11666666666666654
1 -> 2,6.852667000000004,6.8526669999999985,6.852667000000002,6.852667000000002,6.852667000000004,2.3498992183808826e-15,-5.921189464667501e-16,85.9,85.9,85.9,85.9,85.9,0.0,0.0,36.000000000000014,36.0,36.00000000000001,36.000000000000014,36.000000000000014,6.153480596427404e-15,2.3684757858670005e-15,13.15,12.73,12.889999999999999,12.84,12.73,0.16911534525287766,0.13999999999999999
1 -> 2,6.852667000000004,6.8526669999999985,6.852667000000002,6.852667000000002,6.852667000000004,2.3498992183808826e-15,-5.921189464667501e-16,85.9,85.9,85.9,85.9,85.9,0.0,0.0,36.000000000000014,36.0,36.00000000000001,36.000000000000014,36.000000000000014,6.153480596427404e-15,2.3684757858670005e-15,13.15,12.73,12.889999999999999,12.84,12.73,0.16911534525287766,0.13999999999999999
1 -> 2,6.852667000000004,6.8526669999999985,6.852667000000002,6.852667000000002,6.852667000000004,2.3498992183808826e-15,-5.921189464667501e-16,85.9,85.9,85.9,85.9,85.9,0.0,0.0,36.000000000000014,36.0,36.00000000000001,36.000000000000014,36.000000000000014,6.153480596427404e-15,2.3684757858670005e-15,13.28,12.36,12.932500000000001,13.045000000000002,12.36,0.3634126442489311,-0.30666666666666664
1 -> 2,6.852667000000004,6.8526669999999985,6.852667000000002,6.852667000000002,6.852667000000004,2.3498992183808826e-15,-5.921189464667501e-16,85.9,85.9,85.9,85.9,85.9,0.0,0.0,36.000000000000014,36.0,36.00000000000001,36.000000000000014,36.000000000000014,6.153480596427404e-15,2.3684757858670005e-15,13.28,12.36,12.932500000000001,13.045000000000002,12.36,0.3634126442489311,-0.30666666666666664
1 -> 2,6.852667000000004,6.8526669999999985,6.852667000000002,6.852667000000002,6.852667000000004,2.3498992183808826e-15,-5.921189464667501e-16,85.9,85.9,85.9,85.9,85.9,0.0,0.0,36.000000000000014,36.0,36.00000000000001,36.000000000000014,36.000000000000014,6.153480596427404e-15,2.3684757858670005e-15,11.75,10.34,11.010000000000002,10.975,10.34,0.5244520950477746,-0.47000000000000003
1 -> 2,6.852667000000004,6.8526669999999985,6.852667000000002,6.852667000000002,6.852667000000004,2.3498992183808826e-15,-5.921189464667501e-16,85.9,85.9,85.9,85.9,85.9,0.0,0.0,36.000000000000014,36.0,36.00000000000001,36.000000000000014,36.000000000000014,6.153480596427404e-15,2.3684757858670005e-15,11.75,10.34,11.010000000000002,10.975,10.34,0.5244520950477746,-0.47000000000000003
1 -> 2,6.829622000000003,6.829621999999999,6.829622000000002,6.829622000000002,6.829622000000003,2.082963028648268e-15,-5.921189464667501e-16,85.9,85.9,85.9,85.9,85.9,0.0,0.0,36.000000000000014,36.0,36.00000000000001,36.000000000000014,36.000000000000014,6.153480596427404e-15,2.3684757858670005e-15,9.8,6.09,8.150000000000002,8.355,6.09,1.3970146742250065,-1.236666666666667
1 -> 2,6.829622000000003,6.829621999999999,6.829622000000002,6.829622000000002,6.829622000000003,2.082963028648268e-15,-5.921189464667501e-16,85.9,85.9,85.9,85.9,85.9,0.0,0.0,36.000000000000014,36.0,36.00000000000001,36.000000000000014,36.000000000000014,6.153480596427404e-15,2.3684757858670005e-15,9.8,6.09,8.150000000000002,8.355,6.09,1.3970146742250065,-1.236666666666667
1 -> 2,6.829622000000003,6.829621999999999,6.829622000000002,6.829622000000002,6.829622000000003,2.082963028648268e-15,-5.921189464667501e-16,85.9,85.9,85.9,85.9,85.9,0.0,0.0,36.000000000000014,36.0,36.00000000000001,36.000000000000014,36.000000000000014,6.153480596427404e-15,2.3684757858670005e-15,4.13,-2.28,0.9074999999999999,0.89,-2.28,2.3938188632392383,-2.1366666666666667
1 -> 2,6.829622000000003,6.829621999999999,6.829622000000002,6.829622000000002,6.829622000000003,2.082963028648268e-15,-5.921189464667501e-16,85.9,85.9,85.9,85.9,85.9,0.0,0.0,36.000000000000014,36.0,36.00000000000001,36.000000000000014,36.000000000000014,6.153480596427404e-15,2.3684757858670005e-15,4.13,-2.28,0.9074999999999999,0.89,-2.28,2.3938188632392383,-2.1366666666666667
1 -> 2,6.829622000000003,6.829621999999999,6.829622000000002,6.829622000000002,6.829622000000003,2.082963028648268e-15,-5.921189464667501e-16,85.9,85.9,85.9,85.9,85.9,0.0,0.0,36.000000000000014,36.0,36.00000000000001,36.000000000000014,36.000000000000014,6.153480596427404e-15,2.3684757858670005e-15,-4.24,-10.23,-7.177499999999999,-7.119999999999999,-10.23,2.2290174404880734,-1.9966666666666668
1 -> 2,6.829622000000003,6.829621999999999,6.829622000000002,6.829622000000002,6.829622000000003,2.082963028648268e-15,-5.921189464667501e-16,85.9,85.9,85.9,85.9,85.9,0.0,0.0,36.000000000000014,36.0,36.00000000000001,36.000000000000014,36.000000000000014,6.153480596427404e-15,2.3684757858670005e-15,-4.24,-10.23,-7.177499999999999,-7.119999999999999,-10.23,2.2290174404880734,-1.9966666666666668
1 -> 2,6.829622000000003,6.829621999999999,6.829622000000002,6.829622000000002,6.829622000000003,2.082963028648268e-15,-5.921189464667501e-16,85.9,85.9,85.9,85.9,85.9,0.0,0.0,36.000000000000014,36.0,36.00000000000001,36.000000000000014,36.000000000000014,6.153480596427404e-15,2.3684757858670005e-15,-12.55,-17.82,-15.495,-15.805,-17.82,2.0059224810545397,-1.7566666666666666
1 -> 2,6.829622000000003,6.829621999999999,6.829622000000002,6.829622000000002,6.829622000000003,2.082963028648268e-15,-5.921189464667501e-16,85.9,85.9,85.9,85.9,85.9,0.0,0.0,36.000000000000014,36.0,36.00000000000001,36.000000000000014,36.000000000000014,6.153480596427404e-15,2.3684757858670005e-15,-12.55,-17.82,-15.495,-15.805,-17.82,2.0059224810545397,-1.7566666666666666
1 -> 2,6.779692000000003,6.779691999999996,6.779692000000001,6.779692000000001,6.779692000000003,3.4111139459141383e-15,-2.9605947323337506e-16,86.36,86.36,86.36,86.36,86.36,0.0,0.0,35.990000000000016,35.989999999999995,35.99000000000001,35.99000000000001,35.990000000000016,8.702335715267317e-15,4.736951571734001e-15,-10.23,-17.67,-14.415,-14.88,-17.67,2.8272734215140924,2.4800000000000004
