PHASE,EDA_MAX,EDA_MIN,EDA_MEAN,EDA_MEDIAN,EDA_MODE,EDA_SD,EDA_DIFF,HR_MAX,HR_MIN,HR_MEAN,HR_MEDIAN,HR_MODE,HR_SD,HR_DIFF,SKT_MAX,SKT_MIN,SKT_MEAN,SKT_MEDIAN,SKT_MODE,SKT_SD,SKT_DIFF,BVP_MAX,BVP_MIN,BVP_MEAN,BVP_MEDIAN,BVP_MODE,BVP_SD,BVP_DIFF
1 -> 2,0.05891300000000005,0.058913,0.05891300000000003,0.05891300000000003,0.05891300000000003,1.734723475976807e-17,1.61907524424502e-17,52.0,52.0,52.0,52.0,52.0,0.0,0.0,27.070000000000014,27.069999999999986,27.07,27.07,27.069999999999986,1.4210854715202004e-14,0.0,1.81,0.81,1.3224999999999998,1.335,0.81,0.37036299761180247,-0.3333333333333333
1 -> 2,0.05891300000000005,0.058913,0.05891300000000003,0.05891300000000003,0.05891300000000003,1.734723475976807e-17,1.61907524424502e-17,52.0,52.0,52.0,52.0,52.0,0.0,0.0,27.070000000000014,27.069999999999986,27.07,27.07,27.069999999999986,1.4210854715202004e-14,0.0,1.81,0.81,1.3224999999999998,1.335,0.81,0.37036299761180247,-0.3333333333333333
1 -> 2,0.05891300000000005,0.058913,0.05891300000000003,0.05891300000000003,0.05891300000000003,1.734723475976807e-17,1.61907524424502e-17,52.0,52.0,52.0,52.0,52.0,0.0,0.0,27.070000000000014,27.069999999999986,27.07,27.07,27.069999999999986,1.4210854715202004e-14,0.0,0.31,-1.95,-0.7625,-0.7050000000000001,-1.95,0.8438416616877837,-0.7533333333333333
1 -> 2,0.05891300000000005,0.058913,0.05891300000000003,0.05891300000000003,0.05891300000000003,1.734723475976807e-17,1.61907524424502e-17,52.0,52.0,52.0,52.0,52.0,0.0,0.0,27.070000000000014,27.069999999999986,27.07,27.07,27.069999999999986,1.4210854715202004e-14,0.0,0.31,-1.95,-0.7625,-0.7050000000000001,-1.95,0.8438416616877837,-0.7533333333333333
1 -> 2,0.05891300000000005,0.058913,0.05891300000000003,0.05891300000000003,0.05891300000000003,1.734723475976807e-17,1.61907524424502e-17,52.0,52.0,52.0,52.0,52.0,0.0,0.0,27.070000000000014,27.069999999999986,27.07,27.07,27.069999999999986,1.4210854715202004e-14,0.0,-2.96,-6.25,-4.6525,-4.7,-6.25,1.2366562780336336,-1.0966666666666667
1 -> 2,0.05891300000000005,0.058913,0.05891300000000003,0.05891300000000003,0.05891300000000003,1.734723475976807e-17,1.61907524424502e-17,52.0,52.0,52.0,52.0,52.0,0.0,0.0,27.070000000000014,27.069999999999986,27.07,27.07,27.069999999999986,1.4210854715202004e-14,0.0,-2.96,-6.25,-4.6525,-4.7,-6.25,1.2366562780336336,-1.0966666666666667
1 -> 2,0.05891300000000005,0.058913,0.05891300000000003,0.05891300000000003,0.05891300000000003,1.734723475976807e-17,1.61907524424502e-17,52.0,52.0,52.0,52.0,52.0,0.0,0.0,27.070000000000014,27.069999999999986,27.07,27.07,27.069999999999986,1.4210854715202004e-14,0.0,-2.59,-6.67,-5.0825000000000005,-5.535,-6.67,1.5918758588533217,1.36
1 -> 2,0.05891300000000005,0.058913,0.05891300000000003,0.05891300000000003,0.05891300000000003,1.734723475976807e-17,1.61907524424502e-17,52.0,52.0,52.0,52.0,52.0,0.0,0.0,27.070000000000014,27.069999999999986,27.07,27.07,27.069999999999986,1.4210854715202004e-14,0.0,-2.59,-6.67,-5.0825000000000005,-5.535,-6.67,1.5918758588533217,1.36
1 -> 2,0.05763200000000003,0.057632,0.05763200000000002,0.05763200000000003,0.05763200000000003,1.2509268882771003e-17,6.938893903907228e-18,52.0,52.0,52.0,52.0,52.0,0.0,0.0,27.070000000000014,27.069999999999986,27.07,27.07,27.069999999999986,1.4210854715202004e-14,0.0,5.78,0.07,3.26,3.5949999999999998,0.07,2.161677589281066,1.9033333333333333
1 -> 2,0.05763200000000003,0.057632,0.05763200000000002,0.05763200000000003,0.05763200000000003,1.2509268882771003e-17,6.938893903907228e-18,52.0,52.0,52.0,52.0,52.0,0.0,0.0,27.070000000000014,27.069999999999986,27.07,27.07,27.069999999999986,1.4210854715202004e-14,0.0,5.78,0.07,3.26,3.5949999999999998,0.07,2.161677589281066,1.9033333333333333
1 -> 2,0.05763200000000003,0.057632,0.05763200000000002,0.05763200000000003,0.05763200000000003,1.2509268882771003e-17,6.938893903907228e-18,52.0,52.0,52.0,52.0,52.0,0.0,0.0,27.070000000000014,27.069999999999986,27.07,27.07,27.069999999999986,1.4210854715202004e-14,0.0,6.42,6.31,6.3875,6.41,6.41,0.04493050188902876,0.03333333333333351
1 -> 2,0.05763200000000003,0.057632,0.05763200000000002,0.05763200000000003,0.05763200000000003,1.2509268882771003e-17,6.938893903907228e-18,52.0,52.0,52.0,52.0,52.0,0.0,0.0,27.070000000000014,27.069999999999986,27.07,27.07,27.069999999999986,1.4210854715202004e-14,0.0,6.42,6.31,6.3875,6.41,6.41,0.04493050188902876,0.03333333333333351
1 -> 2,0.05763200000000003,0.057632,0.05763200000000002,0.05763200000000003,0.05763200000000003,1.2509268882771003e-17,6.938893903907228e-18,52.0,52.0,52.0,52.0,52.0,0.0,0.0,27.070000000000014,27.069999999999986,27.07,27.07,27.069999999999986,1.4210854715202004e-14,0.0,6.42,6.11,6.295,6.324999999999999,6.11,0.12257650672131244,-0.10333333333333321
1 -> 2,0.05763200000000003,0.057632,0.05763200000000002,0.05763200000000003,0.05763200000000003,1.2509268882771003e-17,6.938893903907228e-18,52.0,52.0,52.0,52.0,52.0,0.0,0.0,27.070000000000014,27.069999999999986,27.07,27.07,27.069999999999986,1.4210854715202004e-14,0.0,6.42,6.11,6.295,6.324999999999999,6.11,0.12257650672131244,-0.10333333333333321
1 -> 2,0.05763200000000003,0.057632,0.05763200000000002,0.05763200000000003,0.05763200000000003,1.2509268882771003e-17,6.938893903907228e-18,52.0,52.0,52.0,52.0,52.0,0.0,0.0,27.070000000000014,27.069999999999986,27.07,27.07,27.069999999999986,1.4210854715202004e-14,0.0,6.31,6.01,6.14,6.12,6.01,0.11874342087037916,0.09999999999999994
1 -> 2,0.05763200000000003,0.057632,0.05763200000000002,0.05763200000000003,0.05763200000000003,1.2509268882771003e-17,6.938893903907228e-18,52.0,52.0,52.0,52.0,52.0,0.0,0.0,27.070000000000014,27.069999999999986,27.07,27.07,27.069999999999986,1.4210854715202004e-14,0.0,6.31,6.01,6.14,6.12,6.01,0.11874342087037916,0.09999999999999994
1 -> 2,0.05763200000000003,0.057632,0.05763200000000002,0.05763200000000003,0.05763200000000003,1.2509268882771003e-17,6.938893903907228e-18,52.0,52.0,52.0,52.0,52.0,0.0,0.0,27.070000000000014,27.069999999999986,27.07,27.07,27.069999999999986,1.4210854715202004e-14,0.0,6.3,5.07,5.7675,5.85,5.07,0.46916814683011027,-0.40999999999999986
1 -> 2,0.05763200000000003,0.057632,0.05763200000000002,0.05763200000000003,0.05763200000000003,1.2509268882771003e-17,6.938893903907228e-18,52.0,52.0,52.0,52.0,52.0,0.0,0.0,27.070000000000014,27.069999999999986,27.07,27.07,27.069999999999986,1.4210854715202004e-14,0.0,6.3,5.07,5.7675,5.85,5.07,0.46916814683011027,-0.40999999999999986
1 -> 2,0.05763200000000003,0.057632,0.05763200000000002,0.05763200000000003,0.05763200000000003,1.2509268882771003e-17,6.938893903907228e-18,52.0,52.0,52.0,52.0,52.0,0.0,0.0,27.070000000000014,27.069999999999986,27.07,27.07,27.069999999999986,1.4210854715202004e-14,0.0,4.51,3.21,3.8324999999999996,3.8049999999999997,3.21,0.48272015702682225,-0.4333333333333333
1 -> 2,0.05763200000000003,0.057632,0.05763200000000002,0.05763200000000003,0.05763200000000003,1.2509268882771003e-17,6.938893903907228e-18,52.0,52.0,52.0,52.0,52.0,0.0,0.0,27.070000000000014,27.069999999999986,27.07,27.07,27.069999999999986,1.4210854715202004e-14,0.0,4.51,3.21,3.8324999999999996,3.8049999999999997,3.21,0.48272015702682225,-0.4333333333333333
1 -> 2,0.05763200000000003,0.057632,0.05763200000000002,0.05763200000000003,0.05763200000000003,1.2509268882771003e-17,6.938893903907228e-18,52.0,52.0,52.0,52.0,52.0,0.0,0.0,27.070000000000014,27.069999999999986,27.07,27.07,27.069999999999986,1.4210854715202004e-14,0.0,2.75,-0.17,1.45,1.6099999999999999,-0.17,1.098453458276681,-0.9733333333333333
1 -> 2,0.05763200000000003,0.057632,0.05763200000000002,0.05763200000000003,0.05763200000000003,1.2509268882771003e-17,6.938893903907228e-18,52.0,52.0,52.0,52.0,52.0,0.0,0.0,27.070000000000014,27.069999999999986,27.07,27.07,27.069999999999986,1.4210854715202004e-14,0.0,2.75,-0.17,1.45,1.6099999999999999,-0.17,1.098453458276681,-0.9733333333333333
1 -> 2,0.05763200000000003,0.057632,0.05763200000000002,0.05763200000000003,0.05763200000000003,1.2509268882771003e-17,6.938893903907228e-18,52.0,52.0,52.0,52.0,52.0,0.0,0.0,27.070000000000014,27.069999999999986,27.07,27.07,27.069999999999986,1.4210854715202004e-14,0.0,-1.74,-5.26,-3.7525,-4.005,-5.26,1.3516910704743152,-1.1733333333333331
1 -> 2,0.05763200000000003,0.057632,0.05763200000000002,0.05763200000000003,0.05763200000000003,1.2509268882771003e-17,6.938893903907228e-18,52.0,52.0,52.0,52.0,52.0,0.0,0.0,27.070000000000014,27.069999999999986,27.07,27.07,27.069999999999986,1.4210854715202004e-14,0.0,-1.74,-5.26,-3.7525,-4.005,-5.26,1.3516910704743152,-1.1733333333333331
1 -> 2,0.05891300000000005,0.058913,0.05891300000000003,0.05891300000000003,0.05891300000000003,1.734723475976807e-17,1.61907524424502e-17,52.0,52.0,52.0,52.0,52.0,0.0,0.0,27.070000000000014,27.069999999999986,27.07,27.07,27.069999999999986,1.4210854715202004e-14,0.0,1.23,-4.87,-2.0949999999999998,-2.37,-4.87,2.3067130293991926,2.033333333333333
1 -> 2,0.05891300000000005,0.058913,0.05891300000000003,0.05891300000000003,0.05891300000000003,1.734723475976807e-17,1.61907524424502e-17,52.0,52.0,52.0,52.0,52.0,0.0,0.0,27.070000000000014,27.069999999999986,27.07,27.07,27.069999999999986,1.4210854715202004e-14,0.0,1.23,-4.87,-2.0949999999999998,-2.37,-4.87,2.3067130293991926,2.033333333333333
1 -> 2,0.05891300000000005,0.058913,0.05891300000000003,0.05891300000000003,0.05891300000000003,1.734723475976807e-17,1.61907524424502e-17,52.0,52.0,52.0,52.0,52.0,0.0,0.0,27.070000000000014,27.069999999999986,27.07,27.07,27.069999999999986,1.4210854715202004e-14,0.0,8.5,3.66,6.282500000000001,6.485,3.66,1.812517241297307,1.6133333333333333
1 -> 2,0.05891300000000005,0.058913,0.05891300000000003,0.05891300000000003,0.05891300000000003,1.734723475976807e-17,1.61907524424502e-17,52.0,52.0,52.0,52.0,52.0,0.0,0.0,27.070000000000014,27.069999999999986,27.07,27.07,27.069999999999986,1.4210854715202004e-14,0.0,8.5,3.66,6.282500000000001,6.485,3.66,1.812517241297307,1.6133333333333333
1 -> 2,0.05891300000000005,0.058913,0.05891300000000003,0.05891300000000003,0.05891300000000003,1.734723475976807e-17,1.61907524424502e-17,52.0,52.0,52.0,52.0,52.0,0.0,0.0,27.070000000000014,27.069999999999986,27.07,27.07,27.069999999999986,1.4210854715202004e-14,0.0,10.44,9.46,10.065,10.18,9.46,0.3661625322175929,0.25333333333333324
1 -> 2,0.05891300000000005,0.058913,0.05891300000000003,0.05891300000000003,0.05891300000000003,1.734723475976807e-17,1.61907524424502e-17,52.0,52.0,52.0,52.0,52.0,0.0,0.0,27.070000000000014,27.069999999999986,27.07,27.07,27.069999999999986,1.4210854715202004e-14,0.0,10.44,9.46,10.065,10.18,9.46,0.3661625322175929,0.25333333333333324
1 -> 2,0.05891300000000005,0.058913,0.05891300000000003,0.05891300000000003,0.05891300000000003,1.734723475976807e-17,1.61907524424502e-17,52.0,52.0,52.0,52.0,52.0,0.0,0.0,27.070000000000014,27.069999999999986,27.07,27.07,27.069999999999986,1.4210854715202004e-14,0.0,9.51,6.42,7.952500000000001,7.9399999999999995,6.42,1.159706320582931,-1.03
1 -> 2,0.05891300000000005,0.058913,0.05891300000000003,0.05891300000000003,0.05891300000000003,1.734723475976807e-17,1.61907524424502e-17,52.0,52.0,52.0,52.0,52.0,0.0,0.0,27.070000000000014,27.069999999999986,27.07,27.07,27.069999999999986,1.4210854715202004e-14,0.0,9.51,6.42,7.952500000000001,7.9399999999999995,6.42,1.159706320582931,-1.03
1 -> 2,0.05891300000000005,0.058913,0.05891300000000003,0.05891300000000003,0.05891300000000003,1.734723475976807e-17,1.61907524424502e-17,52.0,52.0,52.0,52.0,52.0,0.0,0.0,27.050000000000015,27.04999999999999,27.050000000000004,27.050000000000004,27.050000000000015,1.1648350771590544e-14,1.1842378929335002e-15,5.6,3.02,4.3625,4.415,3.02,0.9618309362876616,-0.8599999999999999
1 -> 2,0.05891300000000005,0.058913,0.05891300000000003,0.05891300000000003,0.05891300000000003,1.734723475976807e-17,1.61907524424502e-17,52.0,52.0,52.0,52.0,52.0,0.0,0.0,27.050000000000015,27.04999999999999,27.050000000000004,27.050000000000004,27.050000000000015,1.1648350771590544e-14,1.1842378929335002e-15,5.6,3.02,4.3625,4.415,3.02,0.9618309362876616,-0.8599999999999999
1 -> 2,0.05891300000000005,0.058913,0.05891300000000003,0.05891300000000003,0.05891300000000003,1.734723475976807e-17,1.61907524424502e-17,52.0,52.0,52.0,52.0,52.0,0.0,0.0,27.050000000000015,27.04999999999999,27.050000000000004,27.050000000000004,27.050000000000015,1.1648350771590544e-14,1.1842378929335002e-15,2.11,1.3,1.62,1.5350000000000001,1.3,0.3022416251941482,-0.16999999999999993
1 -> 2,0.05891300000000005,0.058913,0.05891300000000003,0.05891300000000003,0.05891300000000003,1.734723475976807e-17,1.61907524424502e-17,52.0,52.0,52.0,52.0,52.0,0.0,0.0,27.050000000000015,27.04999999999999,27.050000000000004,27.050000000000004,27.050000000000015,1.1648350771590544e-14,1.1842378929335002e-15,2.11,1.3,1.62,1.5350000000000001,1.3,0.3022416251941482,-0.16999999999999993
1 -> 2,0.05891300000000005,0.058913,0.05891300000000003,0.05891300000000003,0.05891300000000003,1.734723475976807e-17,1.61907524424502e-17,52.0,52.0,52.0,52.0,52.0,0.0,0.0,27.050000000000015,27.04999999999999,27.050000000000004,27.050000000000004,27.050000000000015,1.1648350771590544e-14,1.1842378929335002e-15,2.69,2.06,2.3925,2.41,2.06,0.28056861905779834,-0.036666666666666625
1 -> 2,0.05891300000000005,0.058913,0.05891300000000003,0.05891300000000003,0.05891300000000003,1.734723475976807e-17,1.61907524424502e-17,52.0,52.0,52.0,52.0,52.0,0.0,0.0,27.050000000000015,27.04999999999999,27.050000000000004,27.050000000000004,27.050000000000015,1.1648350771590544e-14,1.1842378929335002e-15,2.69,2.06,2.3925,2.41,2.06,0.28056861905779834,-0.036666666666666625
1 -> 2,0.05891300000000005,0.058913,0.05891300000000003,0.05891300000000003,0.05891300000000003,1.734723475976807e-17,1.61907524424502e-17,52.0,52.0,52.0,52.0,52.0,0.0,0.0,27.050000000000015,27.04999999999999,27.050000000000004,27.050000000000004,27.050000000000015,1.1648350771590544e-14,1.1842378929335002e-15,0.71,-6.02,-2.5374999999999996,-2.42,-6.02,2.5218780204442877,-2.243333333333333
1 -> 2,0.05891300000000005,0.058913,0.05891300000000003,0.05891300000000003,0.05891300000000003,1.734723475976807e-17,1.61907524424502e-17,52.0,52.0,52.0,52.0,52.0,0.0,0.0,27.050000000000015,27.04999999999999,27.050000000000004,27.050000000000004,27.050000000000015,1.1648350771590544e-14,1.1842378929335002e-15,0.71,-6.02,-2.5374999999999996,-2.42,-6.02,2.5218780204442877,-2.243333333333333
1 -> 2,0.05763200000000003,0.057632,0.05763200000000002,0.05763200000000003,0.05763200000000003,1.2509268882771003e-17,6.938893903907228e-18,52.0,52.0,52.0,52.0,52.0,0.0,0.0,27.050000000000015,27.04999999999999,27.050000000000004,27.050000000000004,27.050000000000015,1.1648350771590544e-14,1.1842378929335002e-15,-8.26,-10.93,-10.0225,-10.45,-10.93,1.0861255682470605,-0.8833333333333334
1 -> 2,0.05763200000000003,0.057632,0.05763200000000002,0.05763200000000003,0.05763200000000003,1.2509268882771003e-17,6.938893903907228e-18,52.0,52.0,52.0,52.0,52.0,0.0,0.0,27.050000000000015,27.04999999999999,27.050000000000004,27.050000000000004,27.050000000000015,1.1648350771590544e-14,1.1842378929335002e-15,-8.26,-10.93,-10.0225,-10.45,-10.93,1.0861255682470605,-0.8833333333333334
1 -> 2,0.05763200000000003,0.057632,0.05763200000000002,0.05763200000000003,0.05763200000000003,1.2509268882771003e-17,6.938893903907228e-18,52.0,52.0,52.0,52.0,52.0,0.0,0.0,27.050000000000015,27.04999999999999,27.050000000000004,27.050000000000004,27.050000000000015,1.1648350771590544e-14,1.1842378929335002e-15,-2.67,-9.86,-6.460000000000001,-6.654999999999999,-9.86,2.7018789758240467,2.3966666666666665
1 -> 2,0.05763200000000003,0.057632,0.05763200000000002,0.05763200000000003,0.05763200000000003,1.2509268882771003e-17,6.938893903907228e-18,52.0,52.0,52.0,52.0,52.0,0.0,0.0,27.050000000000015,27.04999999999999,27.050000000000004,27.050000000000004,27.050000000000015,1.1648350771590544e-14,1.1842378929335002e-15,-2.67,-9.86,-6.460000000000001,-6.654999999999999,-9.86,2.7018789758240467,2.3966666666666665
1 -> 2,0.05763200000000003,0.057632,0.05763200000000002,0.05763200000000003,0.05763200000000003,1.2509268882771003e-17,6.938893903907228e-18,52.0,52.0,52.0,52.0,52.0,0.0,0.0,27.050000000000015,27.04999999999999,27.050000000000004,27.050000000000004,27.050000000000015,1.1648350771590544e-14,1.1842378929335002e-15,4.33,-0.16,2.3449999999999998,2.605,-0.16,1.690480700865881,1.4966666666666668
1 -> 2,0.05763200000000003,0.057632,0.05763200000000002,0.05763200000000003,0.05763200000000003,1.2509268882771003e-17,6.938893903907228e-18,52.0,52.0,52.0,52.0,52.0,0.0,0.0,27.050000000000015,27.04999999999999,27.050000000000004,27.050000000000004,27.050000000000015,1.1648350771590544e-14,1.1842378929335002e-15,4.33,-0.16,2.3449999999999998,2.605,-0.16,1.690480700865881,1.4966666666666668
1 -> 2,0.05763200000000003,0.057632,0.05763200000000002,0.05763200000000003,0.05763200000000003,1.2509268882771003e-17,6.938893903907228e-18,52.0,52.0,52.0,52.0,52.0,0.0,0.0,27.050000000000015,27.04999999999999,27.050000000000004,27.050000000000004,27.050000000000015,1.1648350771590544e-14,1.1842378929335002e-15,6.24,5.0,5.67,5.72,5.0,0.46556417387939125,0.4133333333333334
1 -> 2,0.05763200000000003,0.057632,0.05763200000000002,0.05763200000000003,0.05763200000000003,1.2509268882771003e-17,6.938893903907228e-18,52.0,52.0,52.0,52.0,52.0,0.0,0.0,27.050000000000015,27.04999999999999,27.050000000000004,27.050000000000004,27.050000000000015,1.1648350771590544e-14,1.1842378929335002e-15,6.24,5.0,5.67,5.72,5.0,0.46556417387939125,0.4133333333333334
1 -> 2,0.056351000000000026,0.05635099999999999,0.05635100000000002,0.05635100000000002,0.056351000000000026,1.512296865354102e-17,6.938893903907228e-18,52.0,52.0,52.0,52.0,52.0,0.0,0.0,27.050000000000015,27.04999999999999,27.050000000000004,27.050000000000004,27.050000000000015,1.1648350771590544e-14,1.1842378929335002e-15,6.46,6.25,6.375,6.395,6.25,0.08077747210701748,-0.05999999999999991
1 -> 2,0.056351000000000026,0.05635099999999999,0.05635100000000002,0.05635100000000002,0.056351000000000026,1.512296865354102e-17,6.938893903907228e-18,52.0,52.0,52.0,52.0,52.0,0.0,0.0,27.050000000000015,27.04999999999999,27.050000000000004,27.050000000000004,27.050000000000015,1.1648350771590544e-14,1.1842378929335002e-15,6.46,6.25,6.375,6.395,6.25,0.08077747210701748,-0.05999999999999991
1 -> 2,0.056351000000000026,0.05635099999999999,0.05635100000000002,0.05635100000000002,0.056351000000000026,1.512296865354102e-17,6.938893903907228e-18,52.0,52.0,52.0,52.0,52.0,0.0,0.0,27.050000000000015,27.04999999999999,27.050000000000004,27.050000000000004,27.050000000000015,1.1648350771590544e-14,1.1842378929335002e-15,6.69,6.23,6.455,6.449999999999999,6.23,0.17741194999210172,0.15333333333333332
1 -> 2,0.056351000000000026,0.05635099999999999,0.05635100000000002,0.05635100000000002,0.056351000000000026,1.512296865354102e-17,6.938893903907228e-18,52.0,52.0,52.0,52.0,52.0,0.0,0.0,27.050000000000015,27.04999999999999,27.050000000000004,27.050000000000004,27.050000000000015,1.1648350771590544e-14,1.1842378929335002e-15,6.69,6.23,6.455,6.449999999999999,6.23,0.17741194999210172,0.15333333333333332
1 -> 2,0.056351000000000026,0.05635099999999999,0.05635100000000002,0.05635100000000002,0.056351000000000026,1.512296865354102e-17,6.938893903907228e-18,52.0,52.0,52.0,52.0,52.0,0.0,0.0,27.050000000000015,27.04999999999999,27.050000000000004,27.050000000000004,27.050000000000015,1.1648350771590544e-14,1.1842378929335002e-15,6.59,4.27,5.58,5.73,4.27,0.8828080199001366,-0.7733333333333334
1 -> 2,0.056351000000000026,0.05635099999999999,0.05635100000000002,0.05635100000000002,0.056351000000000026,1.512296865354102e-17,6.938893903907228e-18,52.0,52.0,52.0,52.0,52.0,0.0,0.0,27.050000000000015,27.04999999999999,27.050000000000004,27.050000000000004,27.050000000000015,1.1648350771590544e-14,1.1842378929335002e-15,6.59,4.27,5.58,5.73,4.27,0.8828080199001366,-0.7733333333333334
1 -> 2,0.056351000000000026,0.05635099999999999,0.05635100000000002,0.05635100000000002,0.056351000000000026,1.512296865354102e-17,6.938893903907228e-18,52.0,52.0,52.0,52.0,52.0,0.0,0.0,27.050000000000015,27.04999999999999,27.050000000000004,27.050000000000004,27.050000000000015,1.1648350771590544e-14,1.1842378929335002e-15,3.17,0.44,1.7650000000000001,1.725,0.44,1.0138170446387258,-0.91
1 -> 2,0.056351000000000026,0.05635099999999999,0.05635100000000002,0.05635100000000002,0.056351000000000026,1.512296865354102e-17,6.938893903907228e-18,52.0,52.0,52.0,52.0,52.0,0.0,0.0,27.050000000000015,27.04999999999999,27.050000000000004,27.050000000000004,27.050000000000015,1.1648350771590544e-14,1.1842378929335002e-15,3.17,0.44,1.7650000000000001,1.725,0.44,1.0138170446387258,-0.91
1 -> 2,0.05891300000000005,0.058913,0.05891300000000003,0.05891300000000003,0.05891300000000003,1.734723475976807e-17,1.61907524424502e-17,52.0,52.0,52.0,52.0,52.0,0.0,0.0,27.050000000000015,27.04999999999999,27.050000000000004,27.050000000000004,27.050000000000015,1.1648350771590544e-14,1.1842378929335002e-15,-0.58,-5.42,-2.8775,-2.755,-5.42,1.8143370001187762,-1.6133333333333333
1 -> 2,0.05891300000000005,0.058913,0.05891300000000003,0.05891300000000003,0.05891300000000003,1.734723475976807e-17,1.61907524424502e-17,52.0,52.0,52.0,52.0,52.0,0.0,0.0,27.050000000000015,27.04999999999999,27.050000000000004,27.050000000000004,27.050000000000015,1.1648350771590544e-14,1.1842378929335002e-15,-0.58,-5.42,-2.8775,-2.755,-5.42,1.8143370001187762,-1.6133333333333333
1 -> 2,0.05891300000000005,0.058913,0.05891300000000003,0.05891300000000003,0.05891300000000003,1.734723475976807e-17,1.61907524424502e-17,52.0,52.0,52.0,52.0,52.0,0.0,0.0,27.050000000000015,27.04999999999999,27.050000000000004,27.050000000000004,27.050000000000015,1.1648350771590544e-14,1.1842378929335002e-15,-7.1,-8.72,-8.1075,-8.305,-8.72,0.6061095198064458,-0.41000000000000014
1 -> 2,0.05891300000000005,0.058913,0.05891300000000003,0.05891300000000003,0.05891300000000003,1.734723475976807e-17,1.61907524424502e-17,52.0,52.0,52.0,52.0,52.0,0.0,0.0,27.050000000000015,27.04999999999999,27.050000000000004,27.050000000000004,27.050000000000015,1.1648350771590544e-14,1.1842378929335002e-15,-7.1,-8.72,-8.1075,-8.305,-8.72,0.6061095198064458,-0.41000000000000014
1 -> 2,0.05891300000000005,0.058913,0.05891300000000003,0.05891300000000003,0.05891300000000003,1.734723475976807e-17,1.61907524424502e-17,52.0,52.0,52.0,52.0,52.0,0.0,0.0,27.050000000000015,27.04999999999999,27.050000000000004,27.050000000000004,27.050000000000015,1.1648350771590544e-14,1.1842378929335002e-15,-1.75,-7.22,-4.5575,-4.63,-7.22,2.0485650465630814,1.8233333333333333
1 -> 2,0.05891300000000005,0.058913,0.05891300000000003,0.05891300000000003,0.05891300000000003,1.734723475976807e-17,1.61907524424502e-17,52.0,52.0,52.0,52.0,52.0,0.0,0.0,27.050000000000015,27.04999999999999,27.050000000000004,27.050000000000004,27.050000000000015,1.1648350771590544e-14,1.1842378929335002e-15,-1.75,-7.22,-4.5575,-4.63,-7.22,2.0485650465630814,1.8233333333333333
1 -> 2,0.05891300000000005,0.058913,0.05891300000000003,0.05891300000000003,0.05891300000000003,1.734723475976807e-17,1.61907524424502e-17,52.0,52.0,52.0,52.0,52.0,0.0,0.0,27.050000000000015,27.04999999999999,27.050000000000004,27.050000000000004,27.050000000000015,1.1648350771590544e-14,1.1842378929335002e-15,3.74,0.05,2.0675,2.24,0.05,1.3893231265619963,1.2300000000000002
1 -> 2,0.05891300000000005,0.058913,0.05891300000000003,0.05891300000000003,0.05891300000000003,1.734723475976807e-17,1.61907524424502e-17,52.0,52.0,52.0,52.0,52.0,0.0,0.0,27.050000000000015,27.04999999999999,27.050000000000004,27.050000000000004,27.050000000000015,1.1648350771590544e-14,1.1842378929335002e-15,3.74,0.05,2.0675,2.24,0.05,1.3893231265619963,1.2300000000000002
1 -> 2,0.05891300000000005,0.058913,0.05891300000000003,0.05891300000000003,0.05891300000000003,1.734723475976807e-17,1.61907524424502e-17,52.67,52.67,52.67,52.67,52.67,0.0,0.0,27.030000000000015,27.03,27.03000000000001,27.03000000000001,27.030000000000015,6.4047456679787536e-15,-1.1842378929335002e-15,4.14,2.32,3.45,3.67,2.32,0.7189575787207476,-0.6066666666666666
1 -> 2,0.05891300000000005,0.058913,0.05891300000000003,0.05891300000000003,0.05891300000000003,1.734723475976807e-17,1.61907524424502e-17,52.67,52.67,52.67,52.67,52.67,0.0,0.0,27.030000000000015,27.03,27.03000000000001,27.03000000000001,27.030000000000015,6.4047456679787536e-15,-1.1842378929335002e-15,4.14,2.32,3.45,3.67,2.32,0.7189575787207476,-0.6066666666666666
1 -> 2,0.05891300000000005,0.058913,0.05891300000000003,0.05891300000000003,0.05891300000000003,1.734723475976807e-17,1.61907524424502e-17,52.67,52.67,52.67,52.67,52.67,0.0,0.0,27.030000000000015,27.03,27.03000000000001,27.03000000000001,27.030000000000015,6.4047456679787536e-15,-1.1842378929335002e-15,1.25,0.27,0.6725,0.585,0.27,0.3649914382557487,-0.18666666666666668
1 -> 2,0.05891300000000005,0.058913,0.05891300000000003,0.05891300000000003,0.05891300000000003,1.734723475976807e-17,1.61907524424502e-17,52.67,52.67,52.67,52.67,52.67,0.0,0.0,27.030000000000015,27.03,27.03000000000001,27.03000000000001,27.030000000000015,6.4047456679787536e-15,-1.1842378929335002e-15,1.25,0.27,0.6725,0.585,0.27,0.3649914382557487,-0.18666666666666668
1 -> 2,0.05891300000000005,0.058913,0.05891300000000003,0.05891300000000003,0.05891300000000003,1.734723475976807e-17,1.61907524424502e-17,52.67,52.67,52.67,52.67,52.67,0.0,0.0,27.030000000000015,27.03,27.03000000000001,27.03000000000001,27.030000000000015,6.4047456679787536e-15,-1.1842378929335002e-15,3.83,1.58,2.8625,3.02,1.58,0.8612019217349669,0.75
1 -> 2,0.05891300000000005,0.058913,0.05891300000000003,0.05891300000000003,0.05891300000000003,1.734723475976807e-17,1.61907524424502e-17,52.67,52.67,52.67,52.67,52.67,0.0,0.0,27.030000000000015,27.03,27.03000000000001,27.03000000000001,27.030000000000015,6.4047456679787536e-15,-1.1842378929335002e-15,3.83,1.58,2.8625,3.02,1.58,0.8612019217349669,0.75
1 -> 2,0.05891300000000005,0.058913,0.05891300000000003,0.05891300000000003,0.05891300000000003,1.734723475976807e-17,1.61907524424502e-17,52.67,52.67,52.67,52.67,52.67,0.0,0.0,27.030000000000015,27.03,27.03000000000001,27.03000000000001,27.030000000000015,6.4047456679787536e-15,-1.1842378929335002e-15,3.75,2.37,3.0675,3.075,2.37,0.5227033097274207,-0.45999999999999996
1 -> 2,0.05891300000000005,0.058913,0.05891300000000003,0.05891300000000003,0.05891300000000003,1.734723475976807e-17,1.61907524424502e-17,52.67,52.67,52.67,52.67,52.67,0.0,0.0,27.030000000000015,27.03,27.03000000000001,27.03000000000001,27.030000000000015,6.4047456679787536e-15,-1.1842378929335002e-15,3.75,2.37,3.0675,3.075,2.37,0.5227033097274207,-0.45999999999999996
1 -> 2,0.05763200000000003,0.057632,0.05763200000000002,0.05763200000000003,0.05763200000000003,1.2509268882771003e-17,6.938893903907228e-18,52.67,52.67,52.67,52.67,52.67,0.0,0.0,27.030000000000015,27.03,27.03000000000001,27.03000000000001,27.030000000000015,6.4047456679787536e-15,-1.1842378929335002e-15,2.11,1.54,1.895,1.9649999999999999,1.54,0.21685248442201438,-0.18999999999999995
1 -> 2,0.05763200000000003,0.057632,0.05763200000000002,0.05763200000000003,0.05763200000000003,1.2509268882771003e-17,6.938893903907228e-18,52.67,52.67,52.67,52.67,52.67,0.0,0.0,27.030000000000015,27.03,27.03000000000001,27.03000000000001,27.030000000000015,6.4047456679787536e-15,-1.1842378929335002e-15,2.11,1.54,1.895,1.9649999999999999,1.54,0.21685248442201438,-0.18999999999999995
1 -> 2,0.05763200000000003,0.057632,0.05763200000000002,0.05763200000000003,0.05763200000000003,1.2509268882771003e-17,6.938893903907228e-18,52.67,52.67,52.67,52.67,52.67,0.0,0.0,27.030000000000015,27.03,27.03000000000001,27.03000000000001,27.030000000000015,6.4047456679787536e-15,-1.1842378929335002e-15,0.65,-5.28,-2.115,-1.915,-5.28,2.2319554207017664,-1.9766666666666666
1 -> 2,0.05763200000000003,0.057632,0.05763200000000002,0.05763200000000003,0.05763200000000003,1.2509268882771003e-17,6.938893903907228e-18,52.67,52.67,52.67,52.67,52.67,0.0,0.0,27.030000000000015,27.03,27.03000000000001,27.03000000000001,27.030000000000015,6.4047456679787536e-15,-1.1842378929335002e-15,0.65,-5.28,-2.115,-1.915,-5.28,2.2319554207017664,-1.9766666666666666
1 -> 2,0.05763200000000003,0.057632,0.05763200000000002,0.05763200000000003,0.05763200000000003,1.2509268882771003e-17,6.938893903907228e-18,52.67,52.67,52.67,52.67,52.67,0.0,0.0,27.030000000000015,27.03,27.03000000000001,27.03000000000001,27.030000000000015,6.4047456679787536e-15,-1.1842378929335002e-15,-7.4,-9.49,-8.7175,-8.99,-9.49,0.7901384372374247,-0.5599999999999999
1 -> 2,0.05763200000000003,0.057632,0.05763200000000002,0.05763200000000003,0.05763200000000003,1.2509268882771003e-17,6.938893903907228e-18,52.67,52.67,52.67,52.67,52.67,0.0,0.0,27.030000000000015,27.03,27.03000000000001,27.03000000000001,27.030000000000015,6.4047456679787536e-15,-1.1842378929335002e-15,-7.4,-9.49,-8.7175,-8.99,-9.49,0.7901384372374247,-0.5599999999999999
1 -> 2,0.05763200000000003,0.057632,0.05763200000000002,0.05763200000000003,0.05763200000000003,1.2509268882771003e-17,6.938893903907228e-18,52.67,52.67,52.67,52.67,52.67,0.0,0.0,27.030000000000015,27.03,27.03000000000001,27.03000000000001,27.030000000000015,6.4047456679787536e-15,-1.1842378929335002e-15,-1.7,-7.8,-4.8125,-4.875,-7.8,2.285228380271871,2.033333333333333
1 -> 2,0.05763200000000003,0.057632,0.05763200000000002,0.05763200000000003,0.05763200000000003,1.2509268882771003e-17,6.938893903907228e-18,52.67,52.67,52.67,52.67,52.67,0.0,0.0,27.030000000000015,27.03,27.03000000000001,27.03000000000001,27.030000000000015,6.4047456679787536e-15,-1.1842378929335002e-15,-1.7,-7.8,-4.8125,-4.875,-7.8,2.285228380271871,2.033333333333333
1 -> 2,0.056351000000000026,0.05635099999999999,0.05635100000000002,0.05635100000000002,0.056351000000000026,1.512296865354102e-17,6.938893903907228e-18,52.67,52.67,52.67,52.67,52.67,0.0,0.0,27.030000000000015,27.03,27.03000000000001,27.03000000000001,27.030000000000015,6.4047456679787536e-15,-1.1842378929335002e-15,4.59,0.23,2.5225,2.635,0.23,1.6283945314327237,1.4533333333333331
1 -> 2,0.056351000000000026,0.05635099999999999,0.05635100000000002,0.05635100000000002,0.056351000000000026,1.512296865354102e-17,6.938893903907228e-18,52.67,52.67,52.67,52.67,52.67,0.0,0.0,27.030000000000015,27.03,27.03000000000001,27.03000000000001,27.030000000000015,6.4047456679787536e-15,-1.1842378929335002e-15,4.59,0.23,2.5225,2.635,0.23,1.6283945314327237,1.4533333333333331
1 -> 2,0.056351000000000026,0.05635099999999999,0.05635100000000002,0.05635100000000002,0.056351000000000026,1.512296865354102e-17,6.938893903907228e-18,52.67,52.67,52.67,52.67,52.67,0.0,0.0,27.030000000000015,27.03,27.03000000000001,27.03000000000001,27.030000000000015,6.4047456679787536e-15,-1.1842378929335002e-15,6.48,5.59,6.1275,6.220000000000001,5.59,0.3286620604815836,0.20000000000000018
1 -> 2,0.056351000000000026,0.05635099999999999,0.05635100000000002,0.05635100000000002,0.056351000000000026,1.512296865354102e-17,6.938893903907228e-18,52.67,52.67,52.67,52.67,52.67,0.0,0.0,27.030000000000015,27.03,27.03000000000001,27.03000000000001,27.030000000000015,6.4047456679787536e-15,-1.1842378929335002e-15,6.48,5.59,6.1275,6.220000000000001,5.59,0.3286620604815836,0.20000000000000018
1 -> 2,0.056351000000000026,0.05635099999999999,0.05635100000000002,0.05635100000000002,0.056351000000000026,1.512296865354102e-17,6.938893903907228e-18,52.67,52.67,52.67,52.67,52.67,0.0,0.0,27.030000000000015,27.03,27.03000000000001,27.03000000000001,27.030000000000015,6.4047456679787536e-15,-1.1842378929335002e-15,5.4,1.16,3.3750000000000004,3.47,1.16,1.5882931089695003,-1.4133333333333333
1 -> 2,0.056351000000000026,0.05635099999999999,0.05635100000000002,0.05635100000000002,0.056351000000000026,1.512296865354102e-17,6.938893903907228e-18,52.67,52.67,52.67,52.67,52.67,0.0,0.0,27.030000000000015,27.03,27.03000000000001,27.03000000000001,27.030000000000015,6.4047456679787536e-15,-1.1842378929335002e-15,5.4,1.16,3.3750000000000004,3.47,1.16,1.5882931089695003,-1.4133333333333333
1 -> 2,0.056351000000000026,0.05635099999999999,0.05635100000000002,0.05635100000000002,0.056351000000000026,1.512296865354102e-17,6.938893903907228e-18,52.67,52.67,52.67,52.67,52.67,0.0,0.0,27.030000000000015,27.03,27.03000000000001,27.03000000000001,27.030000000000015,6.4047456679787536e-15,-1.1842378929335002e-15,-0.39,-3.11,-1.98,-2.21,-3.11,1.0454185764563397,-0.9066666666666666
1 -> 2,0.056351000000000026,0.05635099999999999,0.05635100000000002,0.05635100000000002,0.056351000000000026,1.512296865354102e-17,6.938893903907228e-18,52.67,52.67,52.67,52.67,52.67,0.0,0.0,27.030000000000015,27.03,27.03000000000001,27.03000000000001,27.030000000000015,6.4047456679787536e-15,-1.1842378929335002e-15,-0.39,-3.11,-1.98,-2.21,-3.11,1.0454185764563397,-0.9066666666666666
1 -> 2,0.056351000000000026,0.05635099999999999,0.05635100000000002,0.05635100000000002,0.056351000000000026,1.512296865354102e-17,6.938893903907228e-18,52.67,52.67,52.67,52.67,52.67,0.0,0.0,27.030000000000015,27.03,27.03000000000001,27.03000000000001,27.030000000000015,6.4047456679787536e-15,-1.1842378929335002e-15,-0.51,-2.94,-1.7775,-1.83,-2.94,0.9201460481901772,0.8099999999999999
1 -> 2,0.056351000000000026,0.05635099999999999,0.05635100000000002,0.05635100000000002,0.056351000000000026,1.512296865354102e-17,6.938893903907228e-18,52.67,52.67,52.67,52.67,52.67,0.0,0.0,27.030000000000015,27.03,27.03000000000001,27.03000000000001,27.030000000000015,6.4047456679787536e-15,-1.1842378929335002e-15,-0.51,-2.94,-1.7775,-1.83,-2.94,0.9201460481901772,0.8099999999999999
1 -> 2,0.056351000000000026,0.05635099999999999,0.05635100000000002,0.05635100000000002,0.056351000000000026,1.512296865354102e-17,6.938893903907228e-18,52.67,52.67,52.67,52.67,52.67,0.0,0.0,27.030000000000015,27.03,27.03000000000001,27.03000000000001,27.030000000000015,6.4047456679787536e-15,-1.1842378929335002e-15,-0.0,-3.18,-1.1325,-0.6749999999999999,-3.18,1.267268223384458,-1.06
1 -> 2,0.056351000000000026,0.05635099999999999,0.05635100000000002,0.05635100000000002,0.056351000000000026,1.512296865354102e-17,6.938893903907228e-18,52.67,52.67,52.67,52.67,52.67,0.0,0.0,27.030000000000015,27.03,27.03000000000001,27.03000000000001,27.030000000000015,6.4047456679787536e-15,-1.1842378929335002e-15,-0.0,-3.18,-1.1325,-0.6749999999999999,-3.18,1.267268223384458,-1.06
1 -> 2,0.056351000000000026,0.05635099999999999,0.05635100000000002,0.05635100000000002,0.056351000000000026,1.512296865354102e-17,6.938893903907228e-18,52.67,52.67,52.67,52.67,52.67,0.0,0.0,27.030000000000015,27.03,27.03000000000001,27.03000000000001,27.030000000000015,6.4047456679787536e-15,-1.1842378929335002e-15,-6.0,-14.42,-10.505,-10.8,-14.42,3.1811200857559587,-2.8066666666666666
1 -> 2,0.056351000000000026,0.05635099999999999,0.05635100000000002,0.05635100000000002,0.056351000000000026,1.512296865354102e-17,6.938893903907228e-18,52.67,52.67,52.67,52.67,52.67,0.0,0.0,27.030000000000015,27.03,27.03000000000001,27.03000000000001,27.030000000000015,6.4047456679787536e-15,-1.1842378929335002e-15,-6.0,-14.42,-10.505,-10.8,-14.42,3.1811200857559587,-2.8066666666666666
1 -> 2,0.056351000000000026,0.05635099999999999,0.05635100000000002,0.05635100000000002,0.056351000000000026,1.512296865354102e-17,6.938893903907228e-18,52.67,52.67,52.67,52.67,52.67,0.0,0.0,27.030000000000015,27.03,27.03000000000001,27.03000000000001,27.030000000000015,6.4047456679787536e-15,-1.1842378929335002e-15,-6.84,-14.95,-11.555,-12.215,-14.95,3.1146629031084565,2.703333333333333
1 -> 2,0.056351000000000026,0.05635099999999999,0.05635100000000002,0.05635100000000002,0.056351000000000026,1.512296865354102e-17,6.938893903907228e-18,52.67,52.67,52.67,52.67,52.67,0.0,0.0,27.030000000000015,27.03,27.03000000000001,27.03000000000001,27.030000000000015,6.4047456679787536e-15,-1.1842378929335002e-15,-6.84,-14.95,-11.555,-12.215,-14.95,3.1146629031084565,2.703333333333333
1 -> 2,0.05891300000000005,0.058913,0.05891300000000003,0.05891300000000003,0.05891300000000003,1.734723475976807e-17,1.61907524424502e-17,65.5,65.5,65.5,65.5,65.5,0.0,0.0,27.010000000000016,27.009999999999984,27.010000000000005,27.010000000000005,27.010000000000016,1.4862067603866e-14,-2.3684757858670005e-15,7.21,-2.59,2.6675,3.025,-2.59,3.674550142534457,3.266666666666667
1 -> 2,0.05891300000000005,0.058913,0.05891300000000003,0.05891300000000003,0.05891300000000003,1.734723475976807e-17,1.61907524424502e-17,65.5,65.5,65.5,65.5,65.5,0.0,0.0,27.010000000000016,27.009999999999984,27.010000000000005,27.010000000000005,27.010000000000016,1.4862067603866e-14,-2.3684757858670005e-15,7.21,-2.59,2.6675,3.025,-2.59,3.674550142534457,3.266666666666667
1 -> 2,0.05891300000000005,0.058913,0.05891300000000003,0.05891300000000003,0.05891300000000003,1.734723475976807e-17,1.61907524424502e-17,65.5,65.5,65.5,65.5,65.5,0.0,0.0,27.010000000000016,27.009999999999984,27.010000000000005,27.010000000000005,27.010000000000016,1.4862067603866e-14,-2.3684757858670005e-15,10.28,8.95,9.79,9.965,8.95,0.5017469481720843,0.34000000000000047
1 -> 2,0.05891300000000005,0.058913,0.05891300000000003,0.05891300000000003,0.05891300000000003,1.734723475976807e-17,1.61907524424502e-17,65.5,65.5,65.5,65.5,65.5,0.0,0.0,27.010000000000016,27.009999999999984,27.010000000000005,27.010000000000005,27.010000000000016,1.4862067603866e-14,-2.3684757858670005e-15,10.28,8.95,9.79,9.965,8.95,0.5017469481720843,0.34000000000000047
1 -> 2,0.05891300000000005,0.058913,0.05891300000000003,0.05891300000000003,0.05891300000000003,1.734723475976807e-17,1.61907524424502e-17,65.5,65.5,65.5,65.5,65.5,0.0,0.0,27.010000000000016,27.009999999999984,27.010000000000005,27.010000000000005,27.010000000000016,1.4862067603866e-14,-2.3684757858670005e-15,9.16,6.01,7.550000000000001,7.515000000000001,6.01,1.1837018205612426,-1.05
1 -> 2,0.05891300000000005,0.058913,0.05891300000000003,0.05891300000000003,0.05891300000000003,1.734723475976807e-17,1.61907524424502e-17,65.5,65.5,65.5,65.5,65.5,0.0,0.0,27.010000000000016,27.009999999999984,27.010000000000005,27.010000000000005,27.010000000000016,1.4862067603866e-14,-2.3684757858670005e-15,9.16,6.01,7.550000000000001,7.515000000000001,6.01,1.1837018205612426,-1.05
1 -> 2,0.05891300000000005,0.058913,0.05891300000000003,0.05891300000000003,0.05891300000000003,1.734723475976807e-17,1.61907524424502e-17,65.5,65.5,65.5,65.5,65.5,0.0,0.0,27.010000000000016,27.009999999999984,27.010000000000005,27.010000000000005,27.010000000000016,1.4862067603866e-14,-2.3684757858670005e-15,5.37,4.83,5.0275,4.955,4.83,0.20932928605429302,-0.18000000000000002
1 -> 2,0.05891300000000005,0.058913,0.05891300000000003,0.05891300000000003,0.05891300000000003,1.734723475976807e-17,1.61907524424502e-17,65.5,65.5,65.5,65.5,65.5,0.0,0.0,27.010000000000016,27.009999999999984,27.010000000000005,27.010000000000005,27.010000000000016,1.4862067603866e-14,-2.3684757858670005e-15,5.37,4.83,5.0275,4.955,4.83,0.20932928605429302,-0.18000000000000002
1 -> 2,0.05891300000000005,0.058913,0.05891300000000003,0.05891300000000003,0.05891300000000003,1.734723475976807e-17,1.61907524424502e-17,65.5,65.5,65.5,65.5,65.5,0.0,0.0,27.010000000000016,27.009999999999984,27.010000000000005,27.010000000000005,27.010000000000016,1.4862067603866e-14,-2.3684757858670005e-15,4.79,4.28,4.585,4.635,4.28,0.19448650338776716,-0.16999999999999993
1 -> 2,0.05891300000000005,0.058913,0.05891300000000003,0.05891300000000003,0.05891300000000003,1.734723475976807e-17,1.61907524424502e-17,65.5,65.5,65.5,65.5,65.5,0.0,0.0,27.010000000000016,27.009999999999984,27.010000000000005,27.010000000000005,27.010000000000016,1.4862067603866e-14,-2.3684757858670005e-15,4.79,4.28,4.585,4.635,4.28,0.19448650338776716,-0.16999999999999993
1 -> 2,0.05891300000000005,0.058913,0.05891300000000003,0.05891300000000003,0.05891300000000003,1.734723475976807e-17,1.61907524424502e-17,65.5,65.5,65.5,65.5,65.5,0.0,0.0,27.010000000000016,27.009999999999984,27.010000000000005,27.010000000000005,27.010000000000016,1.4862067603866e-14,-2.3684757858670005e-15,3.79,0.48,2.2875,2.44,0.48,1.2448167535826309,-1.1033333333333333
1 -> 2,0.05891300000000005,0.058913,0.05891300000000003,0.05891300000000003,0.05891300000000003,1.734723475976807e-17,1.61907524424502e-17,65.5,65.5,65.5,65.5,65.5,0.0,0.0,27.010000000000016,27.009999999999984,27.010000000000005,27.010000000000005,27.010000000000016,1.4862067603866e-14,-2.3684757858670005e-15,3.79,0.48,2.2875,2.44,0.48,1.2448167535826309,-1.1033333333333333
1 -> 2,0.05891300000000005,0.058913,0.05891300000000003,0.05891300000000003,0.05891300000000003,1.734723475976807e-17,1.61907524424502e-17,65.5,65.5,65.5,65.5,65.5,0.0,0.0,27.010000000000016,27.009999999999984,27.010000000000005,27.010000000000005,27.010000000000016,1.4862067603866e-14,-2.3684757858670005e-15,-1.07,-5.35,-3.2874999999999996,-3.365,-5.35,1.5995683011362782,-1.4266666666666665
1 -> 2,0.05891300000000005,0.058913,0.05891300000000003,0.05891300000000003,0.05891300000000003,1.734723475976807e-17,1.61907524424502e-17,65.5,65.5,65.5,65.5,65.5,0.0,0.0,27.010000000000016,27.009999999999984,27.010000000000005,27.010000000000005,27.010000000000016,1.4862067603866e-14,-2.3684757858670005e-15,-1.07,-5.35,-3.2874999999999996,-3.365,-5.35,1.5995683011362782,-1.4266666666666665
1 -> 2,0.05891300000000005,0.058913,0.05891300000000003,0.05891300000000003,0.05891300000000003,1.734723475976807e-17,1.61907524424502e-17,65.5,65.5,65.5,65.5,65.5,0.0,0.0,27.010000000000016,27.009999999999984,27.010000000000005,27.010000000000005,27.010000000000016,1.4862067603866e-14,-2.3684757858670005e-15,-6.39,-7.84,-7.27,-7.425,-7.84,0.5651106086422374,-0.4833333333333334
1 -> 2,0.05891300000000005,0.058913,0.05891300000000003,0.05891300000000003,0.05891300000000003,1.734723475976807e-17,1.61907524424502e-17,65.5,65.5,65.5,65.5,65.5,0.0,0.0,27.010000000000016,27.009999999999984,27.010000000000005,27.010000000000005,27.010000000000016,1.4862067603866e-14,-2.3684757858670005e-15,-6.39,-7.84,-7.27,-7.425,-7.84,0.5651106086422374,-0.4833333333333334
1 -> 2,0.05763200000000003,0.057632,0.05763200000000002,0.05763200000000003,0.05763200000000003,1.2509268882771003e-17,6.938893903907228e-18,65.5,65.5,65.5,65.5,65.5,0.0,0.0,27.010000000000016,27.009999999999984,27.010000000000005,27.010000000000005,27.010000000000016,1.4862067603866e-14,-2.3684757858670005e-15,-3.42,-7.58,-5.8025,-6.105,-7.58,1.5799426413639197,1.3866666666666667
1 -> 2,0.05763200000000003,0.057632,0.05763200000000002,0.05763200000000003,0.05763200000000003,1.2509268882771003e-17,6.938893903907228e-18,65.5,65.5,65.5,65.5,65.5,0.0,0.0,27.010000000000016,27.009999999999984,27.010000000000005,27.010000000000005,27.010000000000016,1.4862067603866e-14,-2.3684757858670005e-15,-3.42,-7.58,-5.8025,-6.105,-7.58,1.5799426413639197,1.3866666666666667
1 -> 2,0.05763200000000003,0.057632,0.05763200000000002,0.05763200000000003,0.05763200000000003,1.2509268882771003e-17,6.938893903907228e-18,65.5,65.5,65.5,65.5,65.5,0.0,0.0,27.010000000000016,27.009999999999984,27.010000000000005,27.010000000000005,27.010000000000016,1.4862067603866e-14,-2.3684757858670005e-15,6.72,-0.93,3.0300000000000002,3.165,-0.93,2.867865059587009,2.55
1 -> 2,0.05763200000000003,0.057632,0.05763200000000002,0.05763200000000003,0.05763200000000003,1.2509268882771003e-17,6.938893903907228e-18,65.5,65.5,65.5,65.5,65.5,0.0,0.0,27.010000000000016,27.009999999999984,27.010000000000005,27.010000000000005,27.010000000000016,1.4862067603866e-14,-2.3684757858670005e-15,6.72,-0.93,3.0300000000000002,3.165,-0.93,2.867865059587009,2.55
1 -> 2,0.05763200000000003,0.057632,0.05763200000000002,0.05763200000000003,0.05763200000000003,1.2509268882771003e-17,6.938893903907228e-18,65.5,65.5,65.5,65.5,65.5,0.0,0.0,27.010000000000016,27.009999999999984,27.010000000000005,27.010000000000005,27.010000000000016,1.4862067603866e-14,-2.3684757858670005e-15,8.82,8.03,8.435,8.445,8.03,0.32882366094914794,-0.05666666666666664
1 -> 2,0.05763200000000003,0.057632,0.05763200000000002,0.05763200000000003,0.05763200000000003,1.2509268882771003e-17,6.938893903907228e-18,65.5,65.5,65.5,65.5,65.5,0.0,0.0,27.010000000000016,27.009999999999984,27.010000000000005,27.010000000000005,27.010000000000016,1.4862067603866e-14,-2.3684757858670005e-15,8.82,8.03,8.435,8.445,8.03,0.32882366094914794,-0.05666666666666664
1 -> 2,0.05763200000000003,0.057632,0.05763200000000002,0.05763200000000003,0.05763200000000003,1.2509268882771003e-17,6.938893903907228e-18,65.5,65.5,65.5,65.5,65.5,0.0,0.0,27.010000000000016,27.009999999999984,27.010000000000005,27.010000000000005,27.010000000000016,1.4862067603866e-14,-2.3684757858670005e-15,7.11,4.16,5.62,5.605,4.16,1.100249971597364,-0.9833333333333334
1 -> 2,0.05763200000000003,0.057632,0.05763200000000002,0.05763200000000003,0.05763200000000003,1.2509268882771003e-17,6.938893903907228e-18,65.5,65.5,65.5,65.5,65.5,0.0,0.0,27.010000000000016,27.009999999999984,27.010000000000005,27.010000000000005,27.010000000000016,1.4862067603866e-14,-2.3684757858670005e-15,7.11,4.16,5.62,5.605,4.16,1.100249971597364,-0.9833333333333334
1 -> 2,0.05891300000000005,0.058913,0.05891300000000003,0.05891300000000003,0.05891300000000003,1.734723475976807e-17,1.61907524424502e-17,65.5,65.5,65.5,65.5,65.5,0.0,0.0,27.010000000000016,27.009999999999984,27.010000000000005,27.010000000000005,27.010000000000016,1.4862067603866e-14,-2.3684757858670005e-15,3.24,0.68,1.94,1.92,0.68,0.9550130889155395,-0.8533333333333334
1 -> 2,0.05891300000000005,0.058913,0.05891300000000003,0.05891300000000003,0.05891300000000003,1.734723475976807e-17,1.61907524424502e-17,65.5,65.5,65.5,65.5,65.5,0.0,0.0,27.010000000000016,27.009999999999984,27.010000000000005,27.010000000000005,27.010000000000016,1.4862067603866e-14,-2.3684757858670005e-15,3.24,0.68,1.94,1.92,0.68,0.9550130889155395,-0.8533333333333334
1 -> 2,0.05891300000000005,0.058913,0.05891300000000003,0.05891300000000003,0.05891300000000003,1.734723475976807e-17,1.61907524424502e-17,65.5,65.5,65.5,65.5,65.5,0.0,0.0,27.010000000000016,27.009999999999984,27.010000000000005,27.010000000000005,27.010000000000016,1.4862067603866e-14,-2.3684757858670005e-15,-0.1,-1.87,-1.055,-1.125,-1.87,0.6656012319700138,-0.5900000000000001
1 -> 2,0.05891300000000005,0.058913,0.05891300000000003,0.05891300000000003,0.05891300000000003,1.734723475976807e-17,1.61907524424502e-17,65.5,65.5,65.5,65.5,65.5,0.0,0.0,27.010000000000016,27.009999999999984,27.010000000000005,27.010000000000005,27.010000000000016,1.4862067603866e-14,-2.3684757858670005e-15,-0.1,-1.87,-1.055,-1.125,-1.87,0.6656012319700138,-0.5900000000000001
1 -> 2,0.05891300000000005,0.058913,0.05891300000000003,0.05891300000000003,0.05891300000000003,1.734723475976807e-17,1.61907524424502e-17,65.5,65.5,65.5,65.5,65.5,0.0,0.0,27.010000000000016,27.009999999999984,27.010000000000005,27.010000000000005,27.010000000000016,1.4862067603866e-14,-2.3684757858670005e-15,-1.96,-2.08,-2.02,-2.02,-2.08,0.055226805085936304,0.0366666666666667
1 -> 2,0.05891300000000005,0.058913,0.05891300000000003,0.05891300000000003,0.05891300000000003,1.734723475976807e-17,1.61907524424502e-17,65.5,65.5,65.5,65.5,65.5,0.0,0.0,27.010000000000016,27.009999999999984,27.010000000000005,27.010000000000005,27.010000000000016,1.4862067603866e-14,-2.3684757858670005e-15,-1.96,-2.08,-2.02,-2.02,-2.08,0.055226805085936304,0.0366666666666667
1 -> 2,0.05891300000000005,0.058913,0.05891300000000003,0.05891300000000003,0.05891300000000003,1.734723475976807e-17,1.61907524424502e-17,65.5,65.5,65.5,65.5,65.5,0.0,0.0,27.010000000000016,27.009999999999984,27.010000000000005,27.010000000000005,27.010000000000016,1.4862067603866e-14,-2.3684757858670005e-15,-2.33,-6.08,-4.029999999999999,-3.8549999999999995,-6.08,1.4175859762286025,-1.25
1 -> 2,0.05891300000000005,0.058913,0.05891300000000003,0.05891300000000003,0.05891300000000003,1.734723475976807e-17,1.61907524424502e-17,65.5,65.5,65.5,65.5,65.5,0.0,0.0,27.010000000000016,27.009999999999984,27.010000000000005,27.010000000000005,27.010000000000016,1.4862067603866e-14,-2.3684757858670005e-15,-2.33,-6.08,-4.029999999999999,-3.8549999999999995,-6.08,1.4175859762286025,-1.25
1 -> 2,0.060194000000000025,0.06019399999999998,0.060194000000000004,0.06019400000000001,0.060194000000000025,2.023017827855918e-17,9.25185853854297e-18,67.6,67.6,67.6,67.6,67.6,0.0,0.0,27.030000000000015,27.03,27.03000000000001,27.03000000000001,27.030000000000015,6.4047456679787536e-15,-1.1842378929335002e-15,-6.56,-8.13,-7.4975,-7.65,-8.13,0.5962958577753165,0.29000000000000004
1 -> 2,0.060194000000000025,0.06019399999999998,0.060194000000000004,0.06019400000000001,0.060194000000000025,2.023017827855918e-17,9.25185853854297e-18,67.6,67.6,67.6,67.6,67.6,0.0,0.0,27.030000000000015,27.03,27.03000000000001,27.03000000000001,27.030000000000015,6.4047456679787536e-15,-1.1842378929335002e-15,-6.56,-8.13,-7.4975,-7.65,-8.13,0.5962958577753165,0.29000000000000004
1 -> 2,0.060194000000000025,0.06019399999999998,0.060194000000000004,0.06019400000000001,0.060194000000000025,2.023017827855918e-17,9.25185853854297e-18,67.6,67.6,67.6,67.6,67.6,0.0,0.0,27.030000000000015,27.03,27.03000000000001,27.03000000000001,27.030000000000015,6.4047456679787536e-15,-1.1842378929335002e-15,4.21,-4.38,-0.12499999999999978,-0.16499999999999992,-4.38,3.2113743163947737,2.8633333333333333
1 -> 2,0.060194000000000025,0.06019399999999998,0.060194000000000004,0.06019400000000001,0.060194000000000025,2.023017827855918e-17,9.25185853854297e-18,67.6,67.6,67.6,67.6,67.6,0.0,0.0,27.030000000000015,27.03,27.03000000000001,27.03000000000001,27.030000000000015,6.4047456679787536e-15,-1.1842378929335002e-15,4.21,-4.38,-0.12499999999999978,-0.16499999999999992,-4.38,3.2113743163947737,2.8633333333333333
1 -> 2,0.060194000000000025,0.06019399999999998,0.060194000000000004,0.06019400000000001,0.060194000000000025,2.023017827855918e-17,9.25185853854297e-18,67.6,67.6,67.6,67.6,67.6,0.0,0.0,27.030000000000015,27.03,27.03000000000001,27.03000000000001,27.030000000000015,6.4047456679787536e-15,-1.1842378929335002e-15,11.53,6.86,9.535,9.875,6.86,1.7792484368406787,1.5566666666666664
1 -> 2,0.060194000000000025,0.06019399999999998,0.060194000000000004,0.06019400000000001,0.060194000000000025,2.023017827855918e-17,9.25185853854297e-18,67.6,67.6,67.6,67.6,67.6,0.0,0.0,27.030000000000015,27.03,27.03000000000001,27.03000000000001,27.030000000000015,6.4047456679787536e-15,-1.1842378929335002e-15,11.53,6.86,9.535,9.875,6.86,1.7792484368406787,1.5566666666666664
1 -> 2,0.060194000000000025,0.06019399999999998,0.060194000000000004,0.06019400000000001,0.060194000000000025,2.023017827855918e-17,9.25185853854297e-18,67.6,67.6,67.6,67.6,67.6,0.0,0.0,27.030000000000015,27.03,27.03000000000001,27.03000000000001,27.030000000000015,6.4047456679787536e-15,-1.1842378929335002e-15,11.53,7.93,9.924999999999999,10.120000000000001,7.93,1.3672143211654857,-1.2
1 -> 2,0.060194000000000025,0.06019399999999998,0.060194000000000004,0.06019400000000001,0.060194000000000025,2.023017827855918e-17,9.25185853854297e-18,67.6,67.6,67.6,67.6,67.6,0.0,0.0,27.030000000000015,27.03,27.03000000000001,27.03000000000001,27.030000000000015,6.4047456679787536e-15,-1.1842378929335002e-15,11.53,7.93,9.924999999999999,10.120000000000001,7.93,1.3672143211654857,-1.2
1 -> 2,0.05891300000000005,0.058913,0.05891300000000003,0.05891300000000003,0.05891300000000003,1.734723475976807e-17,1.61907524424502e-17,67.6,67.6,67.6,67.6,67.6,0.0,0.0,27.030000000000015,27.03,27.03000000000001,27.03000000000001,27.030000000000015,6.4047456679787536e-15,-1.1842378929335002e-15,6.43,3.44,4.8,4.665,3.44,1.1217174332246067,-0.9966666666666666
1 -> 2,0.05891300000000005,0.058913,0.05891300000000003,0.05891300000000003,0.05891300000000003,1.734723475976807e-17,1.61907524424502e-17,67.6,67.6,67.6,67.6,67.6,0.0,0.0,27.030000000000015,27.03,27.03000000000001,27.03000000000001,27.030000000000015,6.4047456679787536e-15,-1.1842378929335002e-15,6.43,3.44,4.8,4.665,3.44,1.1217174332246067,-0.9966666666666666
1 -> 2,0.05891300000000005,0.058913,0.05891300000000003,0.05891300000000003,0.05891300000000003,1.734723475976807e-17,1.61907524424502e-17,67.6,67.6,67.6,67.6,67.6,0.0,0.0,27.030000000000015,27.03,27.03000000000001,27.03000000000001,27.030000000000015,6.4047456679787536e-15,-1.1842378929335002e-15,2.87,1.58,2.21,2.195,1.58,0.4788005847949645,-0.43
1 -> 2,0.05891300000000005,0.058913,0.05891300000000003,0.05891300000000003,0.05891300000000003,1.734723475976807e-17,1.61907524424502e-17,67.6,67.6,67.6,67.6,67.6,0.0,0.0,27.030000000000015,27.03,27.03000000000001,27.03000000000001,27.030000000000015,6.4047456679787536e-15,-1.1842378929335002e-15,2.87,1.58,2.21,2.195,1.58,0.4788005847949645,-0.43
1 -> 2,0.05891300000000005,0.058913,0.05891300000000003,0.05891300000000003,0.05891300000000003,1.734723475976807e-17,1.61907524424502e-17,67.6,67.6,67.6,67.6,67.6,0.0,0.0,27.030000000000015,27.03,27.03000000000001,27.03000000000001,27.030000000000015,6.4047456679787536e-15,-1.1842378929335002e-15,1.11,-1.51,-0.07749999999999996,0.044999999999999984,-1.51,0.983701555351012,-0.8733333333333334
1 -> 2,0.05891300000000005,0.058913,0.05891300000000003,0.05891300000000003,0.05891300000000003,1.734723475976807e-17,1.61907524424502e-17,67.6,67.6,67.6,67.6,67.6,0.0,0.0,27.030000000000015,27.03,27.03000000000001,27.03000000000001,27.030000000000015,6.4047456679787536e-15,-1.1842378929335002e-15,1.11,-1.51,-0.07749999999999996,0.044999999999999984,-1.51,0.983701555351012,-0.8733333333333334
1 -> 2,0.05891300000000005,0.058913,0.05891300000000003,0.05891300000000003,0.05891300000000003,1.734723475976807e-17,1.61907524424502e-17,67.6,67.6,67.6,67.6,67.6,0.0,0.0,27.030000000000015,27.03,27.03000000000001,27.03000000000001,27.030000000000015,6.4047456679787536e-15,-1.1842378929335002e-15,-2.82,-7.17,-4.98,-4.965,-7.17,1.621218677415234,-1.45
1 -> 2,0.05891300000000005,0.058913,0.05891300000000003,0.05891300000000003,0.05891300000000003,1.734723475976807e-17,1.61907524424502e-17,67.6,67.6,67.6,67.6,67.6,0.0,0.0,27.030000000000015,27.03,27.03000000000001,27.03000000000001,27.030000000000015,6.4047456679787536e-15,-1.1842378929335002e-15,-2.82,-7.17,-4.98,-4.965,-7.17,1.621218677415234,-1.45
1 -> 2,0.05763200000000003,0.057632,0.05763200000000002,0.05763200000000003,0.05763200000000003,1.2509268882771003e-17,6.938893903907228e-18,67.6,67.6,67.6,67.6,67.6,0.0,0.0,27.030000000000015,27.03,27.03000000000001,27.03000000000001,27.030000000000015,6.4047456679787536e-15,-1.1842378929335002e-15,-8.72,-13.09,-11.0125,-11.120000000000001,-13.09,1.6440403735918407,-1.4566666666666663
1 -> 2,0.05763200000000003,0.057632,0.05763200000000002,0.05763200000000003,0.05763200000000003,1.2509268882771003e-17,6.938893903907228e-18,67.6,67.6,67.6,67.6,67.6,0.0,0.0,27.030000000000015,27.03,27.03000000000001,27.03000000000001,27.030000000000015,6.4047456679787536e-15,-1.1842378929335002e-15,-8.72,-13.09,-11.0125,-11.120000000000001,-13.09,1.6440403735918407,-1.4566666666666663
1 -> 2,0.05763200000000003,0.057632,0.05763200000000002,0.05763200000000003,0.05763200000000003,1.2509268882771003e-17,6.938893903907228e-18,67.6,67.6,67.6,67.6,67.6,0.0,0.0,27.030000000000015,27.03,27.03000000000001,27.03000000000001,27.030000000000015,6.4047456679787536e-15,-1.1842378929335002e-15,-8.23,-13.49,-11.370000000000001,-11.88,-13.49,2.0351289885410213,1.7533333333333332
1 -> 2,0.05763200000000003,0.057632,0.05763200000000002,0.05763200000000003,0.05763200000000003,1.2509268882771003e-17,6.938893903907228e-18,67.6,67.6,67.6,67.6,67.6,0.0,0.0,27.030000000000015,27.03,27.03000000000001,27.03000000000001,27.030000000000015,6.4047456679787536e-15,-1.1842378929335002e-15,-8.23,-13.49,-11.370000000000001,-11.88,-13.49,2.0351289885410213,1.7533333333333332
1 -> 2,0.05763200000000003,0.057632,0.05763200000000002,0.05763200000000003,0.05763200000000003,1.2509268882771003e-17,6.938893903907228e-18,67.6,67.6,67.6,67.6,67.6,0.0,0.0,27.030000000000015,27.03,27.03000000000001,27.03000000000001,27.030000000000015,6.4047456679787536e-15,-1.1842378929335002e-15,1.36,-5.17,-1.565,-1.225,-5.17,2.460939861109978,2.1766666666666663
1 -> 2,0.05763200000000003,0.057632,0.05763200000000002,0.05763200000000003,0.05763200000000003,1.2509268882771003e-17,6.938893903907228e-18,67.6,67.6,67.6,67.6,67.6,0.0,0.0,27.030000000000015,27.03,27.03000000000001,27.03000000000001,27.030000000000015,6.4047456679787536e-15,-1.1842378929335002e-15,1.36,-5.17,-1.565,-1.225,-5.17,2.460939861109978,2.1766666666666663
1 -> 2,0.05763200000000003,0.057632,0.05763200000000002,0.05763200000000003,0.05763200000000003,1.2509268882771003e-17,6.938893903907228e-18,67.6,67.6,67.6,67.6,67.6,0.0,0.0,27.030000000000015,27.03,27.03000000000001,27.03000000000001,27.030000000000015,6.4047456679787536e-15,-1.1842378929335002e-15,3.22,2.25,2.8325,2.9299999999999997,2.25,0.37405714804024265,0.3233333333333334
1 -> 2,0.05763200000000003,0.057632,0.05763200000000002,0.05763200000000003,0.05763200000000003,1.2509268882771003e-17,6.938893903907228e-18,67.6,67.6,67.6,67.6,67.6,0.0,0.0,27.030000000000015,27.03,27.03000000000001,27.03000000000001,27.030000000000015,6.4047456679787536e-15,-1.1842378929335002e-15,3.22,2.25,2.8325,2.9299999999999997,2.25,0.37405714804024265,0.3233333333333334
1 -> 2,0.060194000000000025,0.06019399999999998,0.060194000000000004,0.06019400000000001,0.060194000000000025,2.023017827855918e-17,9.25185853854297e-18,67.6,67.6,67.6,67.6,67.6,0.0,0.0,27.030000000000015,27.03,27.03000000000001,27.03000000000001,27.030000000000015,6.4047456679787536e-15,-1.1842378929335002e-15,3.11,1.63,2.4000000000000004,2.4299999999999997,1.63,0.5602677931132576,-0.49333333333333335
1 -> 2,0.060194000000000025,0.06019399999999998,0.060194000000000004,0.06019400000000001,0.060194000000000025,2.023017827855918e-17,9.25185853854297e-18,67.6,67.6,67.6,67.6,67.6,0.0,0.0,27.030000000000015,27.03,27.03000000000001,27.03000000000001,27.030000000000015,6.4047456679787536e-15,-1.1842378929335002e-15,3.11,1.63,2.4000000000000004,2.4299999999999997,1.63,0.5602677931132576,-0.49333333333333335
1 -> 2,0.060194000000000025,0.06019399999999998,0.060194000000000004,0.06019400000000001,0.060194000000000025,2.023017827855918e-17,9.25185853854297e-18,67.6,67.6,67.6,67.6,67.6,0.0,0.0,27.030000000000015,27.03,27.03000000000001,27.03000000000001,27.030000000000015,6.4047456679787536e-15,-1.1842378929335002e-15,2.77,1.38,1.9274999999999998,1.78,1.38,0.5450401361367804,0.4633333333333334
1 -> 2,0.060194000000000025,0.06019399999999998,0.060194000000000004,0.06019400000000001,0.060194000000000025,2.023017827855918e-17,9.25185853854297e-18,67.6,67.6,67.6,67.6,67.6,0.0,0.0,27.030000000000015,27.03,27.03000000000001,27.03000000000001,27.030000000000015,6.4047456679787536e-15,-1.1842378929335002e-15,2.77,1.38,1.9274999999999998,1.78,1.38,0.5450401361367804,0.4633333333333334
1 -> 2,0.060194000000000025,0.06019399999999998,0.060194000000000004,0.06019400000000001,0.060194000000000025,2.023017827855918e-17,9.25185853854297e-18,67.6,67.6,67.6,67.6,67.6,0.0,0.0,27.030000000000015,27.03,27.03000000000001,27.03000000000001,27.030000000000015,6.4047456679787536e-15,-1.1842378929335002e-15,5.69,3.58,4.6775,4.720000000000001,3.58,0.7893787113927004,0.7033333333333335
1 -> 2,0.060194000000000025,0.06019399999999998,0.060194000000000004,0.06019400000000001,0.060194000000000025,2.023017827855918e-17,9.25185853854297e-18,67.6,67.6,67.6,67.6,67.6,0.0,0.0,27.030000000000015,27.03,27.03000000000001,27.03000000000001,27.030000000000015,6.4047456679787536e-15,-1.1842378929335002e-15,5.69,3.58,4.6775,4.720000000000001,3.58,0.7893787113927004,0.7033333333333335
1 -> 2,0.060194000000000025,0.06019399999999998,0.060194000000000004,0.06019400000000001,0.060194000000000025,2.023017827855918e-17,9.25185853854297e-18,67.6,67.6,67.6,67.6,67.6,0.0,0.0,27.030000000000015,27.03,27.03000000000001,27.03000000000001,27.030000000000015,6.4047456679787536e-15,-1.1842378929335002e-15,6.21,4.87,5.755,5.970000000000001,4.87,0.5309661006128357,-0.4166666666666667
1 -> 2,0.060194000000000025,0.06019399999999998,0.060194000000000004,0.06019400000000001,0.060194000000000025,2.023017827855918e-17,9.25185853854297e-18,67.6,67.6,67.6,67.6,67.6,0.0,0.0,27.030000000000015,27.03,27.03000000000001,27.03000000000001,27.030000000000015,6.4047456679787536e-15,-1.1842378929335002e-15,6.21,4.87,5.755,5.970000000000001,4.87,0.5309661006128357,-0.4166666666666667
1 -> 2,0.060194000000000025,0.06019399999999998,0.060194000000000004,0.06019400000000001,0.060194000000000025,2.023017827855918e-17,9.25185853854297e-18,69.0,69.0,69.0,69.0,69.0,0.0,0.0,27.050000000000015,27.04999999999999,27.050000000000004,27.050000000000004,27.050000000000015,1.1648350771590544e-14,1.1842378929335002e-15,3.41,-2.23,0.59,0.5900000000000001,-2.23,2.113350420540806,-1.8800000000000001
1 -> 2,0.060194000000000025,0.06019399999999998,0.060194000000000004,0.06019400000000001,0.060194000000000025,2.023017827855918e-17,9.25185853854297e-18,69.0,69.0,69.0,69.0,69.0,0.0,0.0,27.050000000000015,27.04999999999999,27.050000000000004,27.050000000000004,27.050000000000015,1.1648350771590544e-14,1.1842378929335002e-15,3.41,-2.23,0.59,0.5900000000000001,-2.23,2.113350420540806,-1.8800000000000001
1 -> 2,0.060194000000000025,0.06019399999999998,0.060194000000000004,0.06019400000000001,0.060194000000000025,2.023017827855918e-17,9.25185853854297e-18,69.0,69.0,69.0,69.0,69.0,0.0,0.0,27.050000000000015,27.04999999999999,27.050000000000004,27.050000000000004,27.050000000000015,1.1648350771590544e-14,1.1842378929335002e-15,-3.47,-4.44,-3.9900000000000007,-4.025,-4.44,0.4306390600026894,0.06333333333333331
1 -> 2,0.060194000000000025,0.06019399999999998,0.060194000000000004,0.06019400000000001,0.060194000000000025,2.023017827855918e-17,9.25185853854297e-18,69.0,69.0,69.0,69.0,69.0,0.0,0.0,27.050000000000015,27.04999999999999,27.050000000000004,27.050000000000004,27.050000000000015,1.1648350771590544e-14,1.1842378929335002e-15,-3.47,-4.44,-3.9900000000000007,-4.025,-4.44,0.4306390600026894,0.06333333333333331
1 -> 2,0.060194000000000025,0.06019399999999998,0.060194000000000004,0.06019400000000001,0.060194000000000025,2.023017827855918e-17,9.25185853854297e-18,69.0,69.0,69.0,69.0,69.0,0.0,0.0,27.050000000000015,27.04999999999999,27.050000000000004,27.050000000000004,27.050000000000015,1.1648350771590544e-14,1.1842378929335002e-15,4.54,-1.78,1.4275,1.4749999999999999,-1.78,2.369951212578014,2.106666666666667
1 -> 2,0.060194000000000025,0.06019399999999998,0.060194000000000004,0.06019400000000001,0.060194000000000025,2.023017827855918e-17,9.25185853854297e-18,69.0,69.0,69.0,69.0,69.0,0.0,0.0,27.050000000000015,27.04999999999999,27.050000000000004,27.050000000000004,27.050000000000015,1.1648350771590544e-14,1.1842378929335002e-15,4.54,-1.78,1.4275,1.4749999999999999,-1.78,2.369951212578014,2.106666666666667
1 -> 2,0.060194000000000025,0.06019399999999998,0.060194000000000004,0.06019400000000001,0.060194000000000025,2.023017827855918e-17,9.25185853854297e-18,69.0,69.0,69.0,69.0,69.0,0.0,0.0,27.050000000000015,27.04999999999999,27.050000000000004,27.050000000000004,27.050000000000015,1.1648350771590544e-14,1.1842378929335002e-15,7.06,5.96,6.6875,6.865,5.96,0.43170447067409434,0.33000000000000007
1 -> 2,0.060194000000000025,0.06019399999999998,0.060194000000000004,0.06019400000000001,0.060194000000000025,2.023017827855918e-17,9.25185853854297e-18,69.0,69.0,69.0,69.0,69.0,0.0,0.0,27.050000000000015,27.04999999999999,27.050000000000004,27.050000000000004,27.050000000000015,1.1648350771590544e-14,1.1842378929335002e-15,7.06,5.96,6.6875,6.865,5.96,0.43170447067409434,0.33000000000000007
1 -> 2,0.05891300000000005,0.058913,0.05891300000000003,0.05891300000000003,0.05891300000000003,1.734723475976807e-17,1.61907524424502e-17,69.0,69.0,69.0,69.0,69.0,0.0,0.0,27.050000000000015,27.04999999999999,27.050000000000004,27.050000000000004,27.050000000000015,1.1648350771590544e-14,1.1842378929335002e-15,6.59,4.68,5.6925,5.75,4.68,0.7145059481907762,-0.6366666666666667
1 -> 2,0.05891300000000005,0.058913,0.05891300000000003,0.05891300000000003,0.05891300000000003,1.734723475976807e-17,1.61907524424502e-17,69.0,69.0,69.0,69.0,69.0,0.0,0.0,27.050000000000015,27.04999999999999,27.050000000000004,27.050000000000004,27.050000000000015,1.1648350771590544e-14,1.1842378929335002e-15,6.59,4.68,5.6925,5.75,4.68,0.7145059481907762,-0.6366666666666667
1 -> 2,0.05891300000000005,0.058913,0.05891300000000003,0.05891300000000003,0.05891300000000003,1.734723475976807e-17,1.61907524424502e-17,69.0,69.0,69.0,69.0,69.0,0.0,0.0,27.050000000000015,27.04999999999999,27.050000000000004,27.050000000000004,27.050000000000015,1.1648350771590544e-14,1.1842378929335002e-15,3.89,2.33,3.015,2.92,2.33,0.5913332393836829,-0.52
1 -> 2,0.05891300000000005,0.058913,0.05891300000000003,0.05891300000000003,0.05891300000000003,1.734723475976807e-17,1.61907524424502e-17,69.0,69.0,69.0,69.0,69.0,0.0,0.0,27.050000000000015,27.04999999999999,27.050000000000004,27.050000000000004,27.050000000000015,1.1648350771590544e-14,1.1842378929335002e-15,3.89,2.33,3.015,2.92,2.33,0.5913332393836829,-0.52
1 -> 2,0.05891300000000005,0.058913,0.05891300000000003,0.05891300000000003,0.05891300000000003,1.734723475976807e-17,1.61907524424502e-17,69.0,69.0,69.0,69.0,69.0,0.0,0.0,27.050000000000015,27.04999999999999,27.050000000000004,27.050000000000004,27.050000000000015,1.1648350771590544e-14,1.1842378929335002e-15,2.2,1.75,2.0225,2.07,1.75,0.1713731309161387,-0.15000000000000005
1 -> 2,0.05891300000000005,0.058913,0.05891300000000003,0.05891300000000003,0.05891300000000003,1.734723475976807e-17,1.61907524424502e-17,69.0,69.0,69.0,69.0,69.0,0.0,0.0,27.050000000000015,27.04999999999999,27.050000000000004,27.050000000000004,27.050000000000015,1.1648350771590544e-14,1.1842378929335002e-15,2.2,1.75,2.0225,2.07,1.75,0.1713731309161387,-0.15000000000000005
1 -> 2,0.05891300000000005,0.058913,0.05891300000000003,0.05891300000000003,0.05891300000000003,1.734723475976807e-17,1.61907524424502e-17,69.0,69.0,69.0,69.0,69.0,0.0,0.0,27.050000000000015,27.04999999999999,27.050000000000004,27.050000000000004,27.050000000000015,1.1648350771590544e-14,1.1842378929335002e-15,1.37,0.31,0.805,0.77,0.31,0.39733487136167656,-0.35333333333333333
1 -> 2,0.05891300000000005,0.058913,0.05891300000000003,0.05891300000000003,0.05891300000000003,1.734723475976807e-17,1.61907524424502e-17,69.0,69.0,69.0,69.0,69.0,0.0,0.0,27.050000000000015,27.04999999999999,27.050000000000004,27.050000000000004,27.050000000000015,1.1648350771590544e-14,1.1842378929335002e-15,1.37,0.31,0.805,0.77,0.31,0.39733487136167656,-0.35333333333333333
1 -> 2,0.05891300000000005,0.058913,0.05891300000000003,0.05891300000000003,0.05891300000000003,1.734723475976807e-17,1.61907524424502e-17,69.0,69.0,69.0,69.0,69.0,0.0,0.0,27.050000000000015,27.04999999999999,27.050000000000004,27.050000000000004,27.050000000000015,1.1648350771590544e-14,1.1842378929335002e-15,-0.01,-3.08,-1.29,-1.0350000000000001,-3.08,1.1665118944957227,-1.0233333333333334
1 -> 2,0.05891300000000005,0.058913,0.05891300000000003,0.05891300000000003,0.05891300000000003,1.734723475976807e-17,1.61907524424502e-17,69.0,69.0,69.0,69.0,69.0,0.0,0.0,27.050000000000015,27.04999999999999,27.050000000000004,27.050000000000004,27.050000000000015,1.1648350771590544e-14,1.1842378929335002e-15,-0.01,-3.08,-1.29,-1.0350000000000001,-3.08,1.1665118944957227,-1.0233333333333334
1 -> 2,0.05891300000000005,0.058913,0.05891300000000003,0.05891300000000003,0.05891300000000003,1.734723475976807e-17,1.61907524424502e-17,69.0,69.0,69.0,69.0,69.0,0.0,0.0,27.050000000000015,27.04999999999999,27.050000000000004,27.050000000000004,27.050000000000015,1.1648350771590544e-14,1.1842378929335002e-15,-5.2,-12.14,-8.790000000000001,-8.91,-12.14,2.6083807237441397,-2.3133333333333335
1 -> 2,0.05891300000000005,0.058913,0.05891300000000003,0.05891300000000003,0.05891300000000003,1.734723475976807e-17,1.61907524424502e-17,69.0,69.0,69.0,69.0,69.0,0.0,0.0,27.050000000000015,27.04999999999999,27.050000000000004,27.050000000000004,27.050000000000015,1.1648350771590544e-14,1.1842378929335002e-15,-5.2,-12.14,-8.790000000000001,-8.91,-12.14,2.6083807237441397,-2.3133333333333335
1 -> 2,0.05891300000000005,0.058913,0.05891300000000003,0.05891300000000003,0.05891300000000003,1.734723475976807e-17,1.61907524424502e-17,69.0,69.0,69.0,69.0,69.0,0.0,0.0,27.050000000000015,27.04999999999999,27.050000000000004,27.050000000000004,27.050000000000015,1.1648350771590544e-14,1.1842378929335002e-15,-9.1,-13.23,-11.7825,-12.399999999999999,-13.23,1.6629698584159607,1.376666666666667
1 -> 2,0.05891300000000005,0.058913,0.05891300000000003,0.05891300000000003,0.05891300000000003,1.734723475976807e-17,1.61907524424502e-17,69.0,69.0,69.0,69.0,69.0,0.0,0.0,27.050000000000015,27.04999999999999,27.050000000000004,27.050000000000004,27.050000000000015,1.1648350771590544e-14,1.1842378929335002e-15,-9.1,-13.23,-11.7825,-12.399999999999999,-13.23,1.6629698584159607,1.376666666666667
1 -> 2,0.05891300000000005,0.058913,0.05891300000000003,0.05891300000000003,0.05891300000000003,1.734723475976807e-17,1.61907524424502e-17,69.0,69.0,69.0,69.0,69.0,0.0,0.0,27.050000000000015,27.04999999999999,27.050000000000004,27.050000000000004,27.050000000000015,1.1648350771590544e-14,1.1842378929335002e-15,5.22,-5.7,-0.12749999999999995,-0.014999999999999902,-5.7,4.083658745536899,3.64
1 -> 2,0.05891300000000005,0.058913,0.05891300000000003,0.05891300000000003,0.05891300000000003,1.734723475976807e-17,1.61907524424502e-17,69.0,69.0,69.0,69.0,69.0,0.0,0.0,27.050000000000015,27.04999999999999,27.050000000000004,27.050000000000004,27.050000000000015,1.1648350771590544e-14,1.1842378929335002e-15,5.22,-5.7,-0.12749999999999995,-0.014999999999999902,-5.7,4.083658745536899,3.64
1 -> 2,0.05891300000000005,0.058913,0.05891300000000003,0.05891300000000003,0.05891300000000003,1.734723475976807e-17,1.61907524424502e-17,69.0,69.0,69.0,69.0,69.0,0.0,0.0,27.050000000000015,27.04999999999999,27.050000000000004,27.050000000000004,27.050000000000015,1.1648350771590544e-14,1.1842378929335002e-15,12.06,7.97,10.360000000000001,10.705,7.97,1.5613615852838192,1.3633333333333335
1 -> 2,0.05891300000000005,0.058913,0.05891300000000003,0.05891300000000003,0.05891300000000003,1.734723475976807e-17,1.61907524424502e-17,69.0,69.0,69.0,69.0,69.0,0.0,0.0,27.050000000000015,27.04999999999999,27.050000000000004,27.050000000000004,27.050000000000015,1.1648350771590544e-14,1.1842378929335002e-15,12.06,7.97,10.360000000000001,10.705,7.97,1.5613615852838192,1.3633333333333335
1 -> 2,0.05891300000000005,0.058913,0.05891300000000003,0.05891300000000003,0.05891300000000003,1.734723475976807e-17,1.61907524424502e-17,69.0,69.0,69.0,69.0,69.0,0.0,0.0,27.050000000000015,27.04999999999999,27.050000000000004,27.050000000000004,27.050000000000015,1.1648350771590544e-14,1.1842378929335002e-15,12.12,9.23,10.8825,11.09,9.23,1.1032310501431688,-0.9633333333333329
1 -> 2,0.05891300000000005,0.058913,0.05891300000000003,0.05891300000000003,0.05891300000000003,1.734723475976807e-17,1.61907524424502e-17,69.0,69.0,69.0,69.0,69.0,0.0,0.0,27.050000000000015,27.04999999999999,27.050000000000004,27.050000000000004,27.050000000000015,1.1648350771590544e-14,1.1842378929335002e-15,12.12,9.23,10.8825,11.09,9.23,1.1032310501431688,-0.9633333333333329
1 -> 2,0.05891300000000005,0.058913,0.05891300000000003,0.05891300000000003,0.05891300000000003,1.734723475976807e-17,1.61907524424502e-17,69.0,69.0,69.0,69.0,69.0,0.0,0.0,27.050000000000015,27.04999999999999,27.050000000000004,27.050000000000004,27.050000000000015,1.1648350771590544e-14,1.1842378929335002e-15,7.77,4.79,6.109999999999999,5.9399999999999995,4.79,1.1264990013311151,-0.9933333333333332
1 -> 2,0.05891300000000005,0.058913,0.05891300000000003,0.05891300000000003,0.05891300000000003,1.734723475976807e-17,1.61907524424502e-17,69.0,69.0,69.0,69.0,69.0,0.0,0.0,27.050000000000015,27.04999999999999,27.050000000000004,27.050000000000004,27.050000000000015,1.1648350771590544e-14,1.1842378929335002e-15,7.77,4.79,6.109999999999999,5.9399999999999995,4.79,1.1264990013311151,-0.9933333333333332
1 -> 2,0.05891300000000005,0.058913,0.05891300000000003,0.05891300000000003,0.05891300000000003,1.734723475976807e-17,1.61907524424502e-17,69.0,69.0,69.0,69.0,69.0,0.0,0.0,27.050000000000015,27.04999999999999,27.050000000000004,27.050000000000004,27.050000000000015,1.1648350771590544e-14,1.1842378929335002e-15,4.45,3.5,4.0325,4.09,3.5,0.35485032055783755,-0.3166666666666667
1 -> 2,0.05891300000000005,0.058913,0.05891300000000003,0.05891300000000003,0.05891300000000003,1.734723475976807e-17,1.61907524424502e-17,69.0,69.0,69.0,69.0,69.0,0.0,0.0,27.050000000000015,27.04999999999999,27.050000000000004,27.050000000000004,27.050000000000015,1.1648350771590544e-14,1.1842378929335002e-15,4.45,3.5,4.0325,4.09,3.5,0.35485032055783755,-0.3166666666666667
1 -> 2,0.060194000000000025,0.06019399999999998,0.060194000000000004,0.06019400000000001,0.060194000000000025,2.023017827855918e-17,9.25185853854297e-18,73.0,73.0,73.0,73.0,73.0,0.0,0.0,27.030000000000015,27.03,27.03000000000001,27.03000000000001,27.030000000000015,6.4047456679787536e-15,-1.1842378929335002e-15,2.9,1.16,2.005,1.98,1.16,0.6489414457406769,-0.58
1 -> 2,0.060194000000000025,0.06019399999999998,0.060194000000000004,0.06019400000000001,0.060194000000000025,2.023017827855918e-17,9.25185853854297e-18,73.0,73.0,73.0,73.0,73.0,0.0,0.0,27.030000000000015,27.03,27.03000000000001,27.03000000000001,27.030000000000015,6.4047456679787536e-15,-1.1842378929335002e-15,2.9,1.16,2.005,1.98,1.16,0.6489414457406769,-0.58
1 -> 2,0.060194000000000025,0.06019399999999998,0.060194000000000004,0.06019400000000001,0.060194000000000025,2.023017827855918e-17,9.25185853854297e-18,73.0,73.0,73.0,73.0,73.0,0.0,0.0,27.030000000000015,27.03,27.03000000000001,27.03000000000001,27.030000000000015,6.4047456679787536e-15,-1.1842378929335002e-15,0.51,-4.44,-1.6550000000000002,-1.3450000000000002,-4.44,1.8684284840474896,-1.6500000000000001
1 -> 2,0.060194000000000025,0.06019399999999998,0.060194000000000004,0.06019400000000001,0.060194000000000025,2.023017827855918e-17,9.25185853854297e-18,73.0,73.0,73.0,73.0,73.0,0.0,0.0,27.030000000000015,27.03,27.03000000000001,27.03000000000001,27.030000000000015,6.4047456679787536e-15,-1.1842378929335002e-15,0.51,-4.44,-1.6550000000000002,-1.3450000000000002,-4.44,1.8684284840474896,-1.6500000000000001
1 -> 2,0.060194000000000025,0.06019399999999998,0.060194000000000004,0.06019400000000001,0.060194000000000025,2.023017827855918e-17,9.25185853854297e-18,73.0,73.0,73.0,73.0,73.0,0.0,0.0,27.030000000000015,27.03,27.03000000000001,27.03000000000001,27.030000000000015,6.4047456679787536e-15,-1.1842378929335002e-15,-7.14,-13.09,-10.5075,-10.9,-13.09,2.2697618267122213,-1.9833333333333334
1 -> 2,0.060194000000000025,0.06019399999999998,0.060194000000000004,0.06019400000000001,0.060194000000000025,2.023017827855918e-17,9.25185853854297e-18,73.0,73.0,73.0,73.0,73.0,0.0,0.0,27.030000000000015,27.03,27.03000000000001,27.03000000000001,27.030000000000015,6.4047456679787536e-15,-1.1842378929335002e-15,-7.14,-13.09,-10.5075,-10.9,-13.09,2.2697618267122213,-1.9833333333333334
1 -> 2,0.060194000000000025,0.06019399999999998,0.060194000000000004,0.06019400000000001,0.060194000000000025,2.023017827855918e-17,9.25185853854297e-18,73.0,73.0,73.0,73.0,73.0,0.0,0.0,27.030000000000015,27.03,27.03000000000001,27.03000000000001,27.030000000000015,6.4047456679787536e-15,-1.1842378929335002e-15,-5.47,-12.9,-9.635,-10.085,-12.9,2.8203944759554473,2.476666666666667
1 -> 2,0.060194000000000025,0.06019399999999998,0.060194000000000004,0.06019400000000001,0.060194000000000025,2.023017827855918e-17,9.25185853854297e-18,73.0,73.0,73.0,73.0,73.0,0.0,0.0,27.030000000000015,27.03,27.03000000000001,27.03000000000001,27.030000000000015,6.4047456679787536e-15,-1.1842378929335002e-15,-5.47,-12.9,-9.635,-10.085,-12.9,2.8203944759554473,2.476666666666667
1 -> 2,0.060194000000000025,0.06019399999999998,0.060194000000000004,0.06019400000000001,0.060194000000000025,2.023017827855918e-17,9.25185853854297e-18,73.0,73.0,73.0,73.0,73.0,0.0,0.0,27.030000000000015,27.03,27.03000000000001,27.03000000000001,27.030000000000015,6.4047456679787536e-15,-1.1842378929335002e-15,6.32,-1.92,2.5225,2.8449999999999998,-1.92,3.0948697468552697,2.7466666666666666
1 -> 2,0.060194000000000025,0.06019399999999998,0.060194000000000004,0.06019400000000001,0.060194000000000025,2.023017827855918e-17,9.25185853854297e-18,73.0,73.0,73.0,73.0,73.0,0.0,0.0,27.030000000000015,27.03,27.03000000000001,27.03000000000001,27.030000000000015,6.4047456679787536e-15,-1.1842378929335002e-15,6.32,-1.92,2.5225,2.8449999999999998,-1.92,3.0948697468552697,2.7466666666666666
1 -> 2,0.060194000000000025,0.06019399999999998,0.060194000000000004,0.06019400000000001,0.060194000000000025,2.023017827855918e-17,9.25185853854297e-18,73.0,73.0,73.0,73.0,73.0,0.0,0.0,27.030000000000015,27.03,27.03000000000001,27.03000000000001,27.030000000000015,6.4047456679787536e-15,-1.1842378929335002e-15,8.17,7.6,7.885,7.885,7.6,0.26575364531836654,0.013333333333333345
1 -> 2,0.060194000000000025,0.06019399999999998,0.060194000000000004,0.06019400000000001,0.060194000000000025,2.023017827855918e-17,9.25185853854297e-18,73.0,73.0,73.0,73.0,73.0,0.0,0.0,27.030000000000015,27.03,27.03000000000001,27.03000000000001,27.030000000000015,6.4047456679787536e-15,-1.1842378929335002e-15,8.17,7.6,7.885,7.885,7.6,0.26575364531836654,0.013333333333333345
1 -> 2,0.060194000000000025,0.06019399999999998,0.060194000000000004,0.06019400000000001,0.060194000000000025,2.023017827855918e-17,9.25185853854297e-18,73.0,73.0,73.0,73.0,73.0,0.0,0.0,27.030000000000015,27.03,27.03000000000001,27.03000000000001,27.030000000000015,6.4047456679787536e-15,-1.1842378929335002e-15,6.79,3.36,5.08,5.085000000000001,3.36,1.2859432335838157,-1.1433333333333333
1 -> 2,0.060194000000000025,0.06019399999999998,0.060194000000000004,0.06019400000000001,0.060194000000000025,2.023017827855918e-17,9.25185853854297e-18,73.0,73.0,73.0,73.0,73.0,0.0,0.0,27.030000000000015,27.03,27.03000000000001,27.03000000000001,27.030000000000015,6.4047456679787536e-15,-1.1842378929335002e-15,6.79,3.36,5.08,5.085000000000001,3.36,1.2859432335838157,-1.1433333333333333
1 -> 2,0.060194000000000025,0.06019399999999998,0.060194000000000004,0.06019400000000001,0.060194000000000025,2.023017827855918e-17,9.25185853854297e-18,73.0,73.0,73.0,73.0,73.0,0.0,0.0,27.030000000000015,27.03,27.03000000000001,27.03000000000001,27.030000000000015,6.4047456679787536e-15,-1.1842378929335002e-15,2.52,2.11,2.315,2.3150000000000004,2.11,0.19059118552545923,-0.009999999999999934
1 -> 2,0.060194000000000025,0.06019399999999998,0.060194000000000004,0.06019400000000001,0.060194000000000025,2.023017827855918e-17,9.25185853854297e-18,73.0,73.0,73.0,73.0,73.0,0.0,0.0,27.030000000000015,27.03,27.03000000000001,27.03000000000001,27.030000000000015,6.4047456679787536e-15,-1.1842378929335002e-15,2.52,2.11,2.315,2.3150000000000004,2.11,0.19059118552545923,-0.009999999999999934
1 -> 2,0.05891300000000005,0.058913,0.05891300000000003,0.05891300000000003,0.05891300000000003,1.734723475976807e-17,1.61907524424502e-17,73.0,73.0,73.0,73.0,73.0,0.0,0.0,27.030000000000015,27.03,27.03000000000001,27.03000000000001,27.030000000000015,6.4047456679787536e-15,-1.1842378929335002e-15,3.74,2.93,3.3825000000000003,3.4299999999999997,2.93,0.30449753693585113,0.27
1 -> 2,0.05891300000000005,0.058913,0.05891300000000003,0.05891300000000003,0.05891300000000003,1.734723475976807e-17,1.61907524424502e-17,73.0,73.0,73.0,73.0,73.0,0.0,0.0,27.030000000000015,27.03,27.03000000000001,27.03000000000001,27.030000000000015,6.4047456679787536e-15,-1.1842378929335002e-15,3.74,2.93,3.3825000000000003,3.4299999999999997,2.93,0.30449753693585113,0.27
1 -> 2,0.05891300000000005,0.058913,0.05891300000000003,0.05891300000000003,0.05891300000000003,1.734723475976807e-17,1.61907524424502e-17,73.0,73.0,73.0,73.0,73.0,0.0,0.0,27.030000000000015,27.03,27.03000000000001,27.03000000000001,27.030000000000015,6.4047456679787536e-15,-1.1842378929335002e-15,4.16,3.79,4.0075,4.04,3.79,0.15221284439888766,-0.04999999999999997
1 -> 2,0.05891300000000005,0.058913,0.05891300000000003,0.05891300000000003,0.05891300000000003,1.734723475976807e-17,1.61907524424502e-17,73.0,73.0,73.0,73.0,73.0,0.0,0.0,27.030000000000015,27.03,27.03000000000001,27.03000000000001,27.030000000000015,6.4047456679787536e-15,-1.1842378929335002e-15,4.16,3.79,4.0075,4.04,3.79,0.15221284439888766,-0.04999999999999997
1 -> 2,0.05891300000000005,0.058913,0.05891300000000003,0.05891300000000003,0.05891300000000003,1.734723475976807e-17,1.61907524424502e-17,73.0,73.0,73.0,73.0,73.0,0.0,0.0,27.030000000000015,27.03,27.03000000000001,27.03000000000001,27.030000000000015,6.4047456679787536e-15,-1.1842378929335002e-15,2.8,-3.28,-0.07500000000000007,0.08999999999999997,-3.28,2.282504107334749,-2.026666666666667
1 -> 2,0.05891300000000005,0.058913,0.05891300000000003,0.05891300000000003,0.05891300000000003,1.734723475976807e-17,1.61907524424502e-17,73.0,73.0,73.0,73.0,73.0,0.0,0.0,27.030000000000015,27.03,27.03000000000001,27.03000000000001,27.030000000000015,6.4047456679787536e-15,-1.1842378929335002e-15,2.8,-3.28,-0.07500000000000007,0.08999999999999997,-3.28,2.282504107334749,-2.026666666666667
1 -> 2,0.05891300000000005,0.058913,0.05891300000000003,0.05891300000000003,0.05891300000000003,1.734723475976807e-17,1.61907524424502e-17,73.0,73.0,73.0,73.0,73.0,0.0,0.0,27.030000000000015,27.03,27.03000000000001,27.03000000000001,27.030000000000015,6.4047456679787536e-15,-1.1842378929335002e-15,-5.46,-9.45,-7.725,-7.994999999999999,-9.45,1.5157588858390372,-1.3299999999999998
1 -> 2,0.05891300000000005,0.058913,0.05891300000000003,0.05891300000000003,0.05891300000000003,1.734723475976807e-17,1.61907524424502e-17,73.0,73.0,73.0,73.0,73.0,0.0,0.0,27.030000000000015,27.03,27.03000000000001,27.03000000000001,27.030000000000015,6.4047456679787536e-15,-1.1842378929335002e-15,-5.46,-9.45,-7.725,-7.994999999999999,-9.45,1.5157588858390372,-1.3299999999999998
1 -> 2,0.060194000000000025,0.06019399999999998,0.060194000000000004,0.06019400000000001,0.060194000000000025,2.023017827855918e-17,9.25185853854297e-18,73.0,73.0,73.0,73.0,73.0,0.0,0.0,27.030000000000015,27.03,27.03000000000001,27.03000000000001,27.030000000000015,6.4047456679787536e-15,-1.1842378929335002e-15,-4.27,-9.46,-7.2700000000000005,-7.675000000000001,-9.46,1.98281365740707,1.7300000000000004
1 -> 2,0.060194000000000025,0.06019399999999998,0.060194000000000004,0.06019400000000001,0.060194000000000025,2.023017827855918e-17,9.25185853854297e-18,73.0,73.0,73.0,73.0,73.0,0.0,0.0,27.030000000000015,27.03,27.03000000000001,27.03000000000001,27.030000000000015,6.4047456679787536e-15,-1.1842378929335002e-15,-4.27,-9.46,-7.2700000000000005,-7.675000000000001,-9.46,1.98281365740707,1.7300000000000004
1 -> 2,0.060194000000000025,0.06019399999999998,0.060194000000000004,0.06019400000000001,0.060194000000000025,2.023017827855918e-17,9.25185853854297e-18,73.0,73.0,73.0,73.0,73.0,0.0,0.0,27.030000000000015,27.03,27.03000000000001,27.03000000000001,27.030000000000015,6.4047456679787536e-15,-1.1842378929335002e-15,5.75,-1.41,2.385,2.6,-1.41,2.680760153389333,2.3866666666666667
1 -> 2,0.060194000000000025,0.06019399999999998,0.060194000000000004,0.06019400000000001,0.060194000000000025,2.023017827855918e-17,9.25185853854297e-18,73.0,73.0,73.0,73.0,73.0,0.0,0.0,27.030000000000015,27.03,27.03000000000001,27.03000000000001,27.030000000000015,6.4047456679787536e-15,-1.1842378929335002e-15,5.75,-1.41,2.385,2.6,-1.41,2.680760153389333,2.3866666666666667
1 -> 2,0.060194000000000025,0.06019399999999998,0.060194000000000004,0.06019400000000001,0.060194000000000025,2.023017827855918e-17,9.25185853854297e-18,73.0,73.0,73.0,73.0,73.0,0.0,0.0,27.030000000000015,27.03,27.03000000000001,27.03000000000001,27.030000000000015,6.4047456679787536e-15,-1.1842378929335002e-15,9.59,7.25,8.6125,8.805,7.25,0.8963920738159169,0.7799999999999999
1 -> 2,0.060194000000000025,0.06019399999999998,0.060194000000000004,0.06019400000000001,0.060194000000000025,2.023017827855918e-17,9.25185853854297e-18,73.0,73.0,73.0,73.0,73.0,0.0,0.0,27.030000000000015,27.03,27.03000000000001,27.03000000000001,27.030000000000015,6.4047456679787536e-15,-1.1842378929335002e-15,9.59,7.25,8.6125,8.805,7.25,0.8963920738159169,0.7799999999999999
1 -> 2,0.060194000000000025,0.06019399999999998,0.060194000000000004,0.06019400000000001,0.060194000000000025,2.023017827855918e-17,9.25185853854297e-18,73.0,73.0,73.0,73.0,73.0,0.0,0.0,27.030000000000015,27.03,27.03000000000001,27.03000000000001,27.030000000000015,6.4047456679787536e-15,-1.1842378929335002e-15,9.48,6.9,8.305,8.42,6.9,0.9776118861797867,-0.86
1 -> 2,0.060194000000000025,0.06019399999999998,0.060194000000000004,0.06019400000000001,0.060194000000000025,2.023017827855918e-17,9.25185853854297e-18,73.0,73.0,73.0,73.0,73.0,0.0,0.0,27.030000000000015,27.03,27.03000000000001,27.03000000000001,27.030000000000015,6.4047456679787536e-15,-1.1842378929335002e-15,9.48,6.9,8.305,8.42,6.9,0.9776118861797867,-0.86
1 -> 2,0.060194000000000025,0.06019399999999998,0.060194000000000004,0.06019400000000001,0.060194000000000025,2.023017827855918e-17,9.25185853854297e-18,76.5,76.5,76.5,76.5,76.5,0.0,0.0,27.050000000000015,27.04999999999999,27.050000000000004,27.050000000000004,27.050000000000015,1.1648350771590544e-14,1.1842378929335002e-15,6.0,4.58,5.2075,5.125,4.58,0.5310072975016444,-0.47333333333333333
1 -> 2,0.060194000000000025,0.06019399999999998,0.060194000000000004,0.06019400000000001,0.060194000000000025,2.023017827855918e-17,9.25185853854297e-18,76.5,76.5,76.5,76.5,76.5,0.0,0.0,27.050000000000015,27.04999999999999,27.050000000000004,27.050000000000004,27.050000000000015,1.1648350771590544e-14,1.1842378929335002e-15,6.0,4.58,5.2075,5.125,4.58,0.5310072975016444,-0.47333333333333333
1 -> 2,0.060194000000000025,0.06019399999999998,0.060194000000000004,0.06019400000000001,0.060194000000000025,2.023017827855918e-17,9.25185853854297e-18,76.5,76.5,76.5,76.5,76.5,0.0,0.0,27.050000000000015,27.04999999999999,27.050000000000004,27.050000000000004,27.050000000000015,1.1648350771590544e-14,1.1842378929335002e-15,4.21,2.29,3.3099999999999996,3.37,2.29,0.7203124322125781,-0.64
1 -> 2,0.060194000000000025,0.06019399999999998,0.060194000000000004,0.06019400000000001,0.060194000000000025,2.023017827855918e-17,9.25185853854297e-18,76.5,76.5,76.5,76.5,76.5,0.0,0.0,27.050000000000015,27.04999999999999,27.050000000000004,27.050000000000004,27.050000000000015,1.1648350771590544e-14,1.1842378929335002e-15,4.21,2.29,3.3099999999999996,3.37,2.29,0.7203124322125781,-0.64
1 -> 2,0.060194000000000025,0.06019399999999998,0.060194000000000004,0.06019400000000001,0.060194000000000025,2.023017827855918e-17,9.25185853854297e-18,76.5,76.5,76.5,76.5,76.5,0.0,0.0,27.050000000000015,27.04999999999999,27.050000000000004,27.050000000000004,27.050000000000015,1.1648350771590544e-14,1.1842378929335002e-15,1.58,-0.29,0.6575,0.6699999999999999,-0.29,0.6923284986189722,-0.6233333333333334
1 -> 2,0.060194000000000025,0.06019399999999998,0.060194000000000004,0.06019400000000001,0.060194000000000025,2.023017827855918e-17,9.25185853854297e-18,76.5,76.5,76.5,76.5,76.5,0.0,0.0,27.050000000000015,27.04999999999999,27.050000000000004,27.050000000000004,27.050000000000015,1.1648350771590544e-14,1.1842378929335002e-15,1.58,-0.29,0.6575,0.6699999999999999,-0.29,0.6923284986189722,-0.6233333333333334
1 -> 2,0.060194000000000025,0.06019399999999998,0.060194000000000004,0.06019400000000001,0.060194000000000025,2.023017827855918e-17,9.25185853854297e-18,76.5,76.5,76.5,76.5,76.5,0.0,0.0,27.050000000000015,27.04999999999999,27.050000000000004,27.050000000000004,27.050000000000015,1.1648350771590544e-14,1.1842378929335002e-15,-1.27,-6.45,-3.715,-3.57,-6.45,1.94424149734543,-1.7266666666666666
1 -> 2,0.060194000000000025,0.06019399999999998,0.060194000000000004,0.06019400000000001,0.060194000000000025,2.023017827855918e-17,9.25185853854297e-18,76.5,76.5,76.5,76.5,76.5,0.0,0.0,27.050000000000015,27.04999999999999,27.050000000000004,27.050000000000004,27.050000000000015,1.1648350771590544e-14,1.1842378929335002e-15,-1.27,-6.45,-3.715,-3.57,-6.45,1.94424149734543,-1.7266666666666666
1 -> 2,0.060194000000000025,0.06019399999999998,0.060194000000000004,0.06019400000000001,0.060194000000000025,2.023017827855918e-17,9.25185853854297e-18,76.5,76.5,76.5,76.5,76.5,0.0,0.0,27.050000000000015,27.04999999999999,27.050000000000004,27.050000000000004,27.050000000000015,1.1648350771590544e-14,1.1842378929335002e-15,-8.29,-10.31,-9.5975,-9.895,-10.31,0.7913082522001151,-0.6133333333333338
1 -> 2,0.060194000000000025,0.06019399999999998,0.060194000000000004,0.06019400000000001,0.060194000000000025,2.023017827855918e-17,9.25185853854297e-18,76.5,76.5,76.5,76.5,76.5,0.0,0.0,27.050000000000015,27.04999999999999,27.050000000000004,27.050000000000004,27.050000000000015,1.1648350771590544e-14,1.1842378929335002e-15,-8.29,-10.31,-9.5975,-9.895,-10.31,0.7913082522001151,-0.6133333333333338
1 -> 2,0.060194000000000025,0.06019399999999998,0.060194000000000004,0.06019400000000001,0.060194000000000025,2.023017827855918e-17,9.25185853854297e-18,76.5,76.5,76.5,76.5,76.5,0.0,0.0,27.050000000000015,27.04999999999999,27.050000000000004,27.050000000000004,27.050000000000015,1.1648350771590544e-14,1.1842378929335002e-15,-2.19,-9.11,-5.902500000000001,-6.154999999999999,-9.11,2.6006862075229296,2.3066666666666666
1 -> 2,0.060194000000000025,0.06019399999999998,0.060194000000000004,0.06019400000000001,0.060194000000000025,2.023017827855918e-17,9.25185853854297e-18,76.5,76.5,76.5,76.5,76.5,0.0,0.0,27.050000000000015,27.04999999999999,27.050000000000004,27.050000000000004,27.050000000000015,1.1648350771590544e-14,1.1842378929335002e-15,-2.19,-9.11,-5.902500000000001,-6.154999999999999,-9.11,2.6006862075229296,2.3066666666666666
1 -> 2,0.060194000000000025,0.06019399999999998,0.060194000000000004,0.06019400000000001,0.060194000000000025,2.023017827855918e-17,9.25185853854297e-18,76.5,76.5,76.5,76.5,76.5,0.0,0.0,27.050000000000015,27.04999999999999,27.050000000000004,27.050000000000004,27.050000000000015,1.1648350771590544e-14,1.1842378929335002e-15,6.7,0.67,3.9924999999999997,4.3,0.67,2.2737895131256103,2.0100000000000002
1 -> 2,0.060194000000000025,0.06019399999999998,0.060194000000000004,0.06019400000000001,0.060194000000000025,2.023017827855918e-17,9.25185853854297e-18,76.5,76.5,76.5,76.5,76.5,0.0,0.0,27.050000000000015,27.04999999999999,27.050000000000004,27.050000000000004,27.050000000000015,1.1648350771590544e-14,1.1842378929335002e-15,6.7,0.67,3.9924999999999997,4.3,0.67,2.2737895131256103,2.0100000000000002
1 -> 2,0.060194000000000025,0.06019399999999998,0.060194000000000004,0.06019400000000001,0.060194000000000025,2.023017827855918e-17,9.25185853854297e-18,76.5,76.5,76.5,76.5,76.5,0.0,0.0,27.050000000000015,27.04999999999999,27.050000000000004,27.050000000000004,27.050000000000015,1.1648350771590544e-14,1.1842378929335002e-15,8.13,7.46,7.8575,7.92,7.46,0.25498774480354947,0.2233333333333336
1 -> 2,0.060194000000000025,0.06019399999999998,0.060194000000000004,0.06019400000000001,0.060194000000000025,2.023017827855918e-17,9.25185853854297e-18,76.5,76.5,76.5,76.5,76.5,0.0,0.0,27.050000000000015,27.04999999999999,27.050000000000004,27.050000000000004,27.050000000000015,1.1648350771590544e-14,1.1842378929335002e-15,8.13,7.46,7.8575,7.92,7.46,0.25498774480354947,0.2233333333333336
1 -> 2,0.05891300000000005,0.058913,0.05891300000000003,0.05891300000000003,0.05891300000000003,1.734723475976807e-17,1.61907524424502e-17,76.5,76.5,76.5,76.5,76.5,0.0,0.0,27.050000000000015,27.04999999999999,27.050000000000004,27.050000000000004,27.050000000000015,1.1648350771590544e-14,1.1842378929335002e-15,8.1,5.77,7.1499999999999995,7.365,5.77,0.8960189730134067,-0.7766666666666667
1 -> 2,0.05891300000000005,0.058913,0.05891300000000003,0.05891300000000003,0.05891300000000003,1.734723475976807e-17,1.61907524424502e-17,76.5,76.5,76.5,76.5,76.5,0.0,0.0,27.050000000000015,27.04999999999999,27.050000000000004,27.050000000000004,27.050000000000015,1.1648350771590544e-14,1.1842378929335002e-15,8.1,5.77,7.1499999999999995,7.365,5.77,0.8960189730134067,-0.7766666666666667
1 -> 2,0.05891300000000005,0.058913,0.05891300000000003,0.05891300000000003,0.05891300000000003,1.734723475976807e-17,1.61907524424502e-17,76.5,76.5,76.5,76.5,76.5,0.0,0.0,27.050000000000015,27.04999999999999,27.050000000000004,27.050000000000004,27.050000000000015,1.1648350771590544e-14,1.1842378929335002e-15,4.4,2.44,3.15,2.88,2.44,0.7816009211867654,-0.6533333333333334
1 -> 2,0.05891300000000005,0.058913,0.05891300000000003,0.05891300000000003,0.05891300000000003,1.734723475976807e-17,1.61907524424502e-17,76.5,76.5,76.5,76.5,76.5,0.0,0.0,27.050000000000015,27.04999999999999,27.050000000000004,27.050000000000004,27.050000000000015,1.1648350771590544e-14,1.1842378929335002e-15,4.4,2.44,3.15,2.88,2.44,0.7816009211867654,-0.6533333333333334
1 -> 2,0.05891300000000005,0.058913,0.05891300000000003,0.05891300000000003,0.05891300000000003,1.734723475976807e-17,1.61907524424502e-17,76.5,76.5,76.5,76.5,76.5,0.0,0.0,27.050000000000015,27.04999999999999,27.050000000000004,27.050000000000004,27.050000000000015,1.1648350771590544e-14,1.1842378929335002e-15,3.35,2.77,3.085,3.11,2.77,0.214184499906039,0.0866666666666666
1 -> 2,0.05891300000000005,0.058913,0.05891300000000003,0.05891300000000003,0.05891300000000003,1.734723475976807e-17,1.61907524424502e-17,76.5,76.5,76.5,76.5,76.5,0.0,0.0,27.050000000000015,27.04999999999999,27.050000000000004,27.050000000000004,27.050000000000015,1.1648350771590544e-14,1.1842378929335002e-15,3.35,2.77,3.085,3.11,2.77,0.214184499906039,0.0866666666666666
1 -> 2,0.05891300000000005,0.058913,0.05891300000000003,0.05891300000000003,0.05891300000000003,1.734723475976807e-17,1.61907524424502e-17,76.5,76.5,76.5,76.5,76.5,0.0,0.0,27.050000000000015,27.04999999999999,27.050000000000004,27.050000000000004,27.050000000000015,1.1648350771590544e-14,1.1842378929335002e-15,2.26,-1.0,0.6275,0.625,-1.0,1.2198642342490413,-1.0866666666666667
1 -> 2,0.05891300000000005,0.058913,0.05891300000000003,0.05891300000000003,0.05891300000000003,1.734723475976807e-17,1.61907524424502e-17,76.5,76.5,76.5,76.5,76.5,0.0,0.0,27.050000000000015,27.04999999999999,27.050000000000004,27.050000000000004,27.050000000000015,1.1648350771590544e-14,1.1842378929335002e-15,2.26,-1.0,0.6275,0.625,-1.0,1.2198642342490413,-1.0866666666666667
1 -> 2,0.060194000000000025,0.06019399999999998,0.060194000000000004,0.06019400000000001,0.060194000000000025,2.023017827855918e-17,9.25185853854297e-18,76.5,76.5,76.5,76.5,76.5,0.0,0.0,27.050000000000015,27.04999999999999,27.050000000000004,27.050000000000004,27.050000000000015,1.1648350771590544e-14,1.1842378929335002e-15,-1.95,-5.05,-3.4450000000000003,-3.3899999999999997,-5.05,1.1551298628292839,-1.0333333333333332
1 -> 2,0.060194000000000025,0.06019399999999998,0.060194000000000004,0.06019400000000001,0.060194000000000025,2.023017827855918e-17,9.25185853854297e-18,76.5,76.5,76.5,76.5,76.5,0.0,0.0,27.050000000000015,27.04999999999999,27.050000000000004,27.050000000000004,27.050000000000015,1.1648350771590544e-14,1.1842378929335002e-15,-1.95,-5.05,-3.4450000000000003,-3.3899999999999997,-5.05,1.1551298628292839,-1.0333333333333332
1 -> 2,0.060194000000000025,0.06019399999999998,0.060194000000000004,0.06019400000000001,0.060194000000000025,2.023017827855918e-17,9.25185853854297e-18,76.5,76.5,76.5,76.5,76.5,0.0,0.0,27.050000000000015,27.04999999999999,27.050000000000004,27.050000000000004,27.050000000000015,1.1648350771590544e-14,1.1842378929335002e-15,-6.25,-8.16,-7.4275,-7.65,-8.16,0.7528404545453173,-0.6366666666666667
1 -> 2,0.060194000000000025,0.06019399999999998,0.060194000000000004,0.06019400000000001,0.060194000000000025,2.023017827855918e-17,9.25185853854297e-18,76.5,76.5,76.5,76.5,76.5,0.0,0.0,27.050000000000015,27.04999999999999,27.050000000000004,27.050000000000004,27.050000000000015,1.1648350771590544e-14,1.1842378929335002e-15,-6.25,-8.16,-7.4275,-7.65,-8.16,0.7528404545453173,-0.6366666666666667
1 -> 2,0.060194000000000025,0.06019399999999998,0.060194000000000004,0.06019400000000001,0.060194000000000025,2.023017827855918e-17,9.25185853854297e-18,76.5,76.5,76.5,76.5,76.5,0.0,0.0,27.050000000000015,27.04999999999999,27.050000000000004,27.050000000000004,27.050000000000015,1.1648350771590544e-14,1.1842378929335002e-15,-3.3,-7.69,-5.6925,-5.890000000000001,-7.69,1.6543333249378738,1.4633333333333336
1 -> 2,0.060194000000000025,0.06019399999999998,0.060194000000000004,0.06019400000000001,0.060194000000000025,2.023017827855918e-17,9.25185853854297e-18,76.5,76.5,76.5,76.5,76.5,0.0,0.0,27.050000000000015,27.04999999999999,27.050000000000004,27.050000000000004,27.050000000000015,1.1648350771590544e-14,1.1842378929335002e-15,-3.3,-7.69,-5.6925,-5.890000000000001,-7.69,1.6543333249378738,1.4633333333333336
1 -> 2,0.060194000000000025,0.06019399999999998,0.060194000000000004,0.06019400000000001,0.060194000000000025,2.023017827855918e-17,9.25185853854297e-18,76.5,76.5,76.5,76.5,76.5,0.0,0.0,27.050000000000015,27.04999999999999,27.050000000000004,27.050000000000004,27.050000000000015,1.1648350771590544e-14,1.1842378929335002e-15,5.09,-1.3,1.895,1.895,-1.3,2.3836579033074354,2.1300000000000003
1 -> 2,0.060194000000000025,0.06019399999999998,0.060194000000000004,0.06019400000000001,0.060194000000000025,2.023017827855918e-17,9.25185853854297e-18,76.5,76.5,76.5,76.5,76.5,0.0,0.0,27.050000000000015,27.04999999999999,27.050000000000004,27.050000000000004,27.050000000000015,1.1648350771590544e-14,1.1842378929335002e-15,5.09,-1.3,1.895,1.895,-1.3,2.3836579033074354,2.1300000000000003
1 -> 2,0.05891300000000005,0.058913,0.05891300000000003,0.05891300000000003,0.05891300000000003,1.734723475976807e-17,1.61907524424502e-17,79.11,79.11,79.11,79.11,79.11,0.0,0.0,27.050000000000015,27.04999999999999,27.050000000000004,27.050000000000004,27.050000000000015,1.1648350771590544e-14,1.1842378929335002e-15,9.7,7.03,8.71,9.055,7.03,1.0574734039208737,0.8899999999999997
1 -> 2,0.05891300000000005,0.058913,0.05891300000000003,0.05891300000000003,0.05891300000000003,1.734723475976807e-17,1.61907524424502e-17,79.11,79.11,79.11,79.11,79.11,0.0,0.0,27.050000000000015,27.04999999999999,27.050000000000004,27.050000000000004,27.050000000000015,1.1648350771590544e-14,1.1842378929335002e-15,9.7,7.03,8.71,9.055,7.03,1.0574734039208737,0.8899999999999997
1 -> 2,0.05891300000000005,0.058913,0.05891300000000003,0.05891300000000003,0.05891300000000003,1.734723475976807e-17,1.61907524424502e-17,79.11,79.11,79.11,79.11,79.11,0.0,0.0,27.050000000000015,27.04999999999999,27.050000000000004,27.050000000000004,27.050000000000015,1.1648350771590544e-14,1.1842378929335002e-15,9.17,5.95,7.5525,7.545,5.95,1.2137210346698288,-1.0733333333333333
1 -> 2,0.05891300000000005,0.058913,0.05891300000000003,0.05891300000000003,0.05891300000000003,1.734723475976807e-17,1.61907524424502e-17,79.11,79.11,79.11,79.11,79.11,0.0,0.0,27.050000000000015,27.04999999999999,27.050000000000004,27.050000000000004,27.050000000000015,1.1648350771590544e-14,1.1842378929335002e-15,9.17,5.95,7.5525,7.545,5.95,1.2137210346698288,-1.0733333333333333
1 -> 2,0.05891300000000005,0.058913,0.05891300000000003,0.05891300000000003,0.05891300000000003,1.734723475976807e-17,1.61907524424502e-17,79.11,79.11,79.11,79.11,79.11,0.0,0.0,27.050000000000015,27.04999999999999,27.050000000000004,27.050000000000004,27.050000000000015,1.1648350771590544e-14,1.1842378929335002e-15,5.29,4.44,4.8675,4.869999999999999,4.44,0.3087373479189065,-0.2833333333333332
1 -> 2,0.05891300000000005,0.058913,0.05891300000000003,0.05891300000000003,0.05891300000000003,1.734723475976807e-17,1.61907524424502e-17,79.11,79.11,79.11,79.11,79.11,0.0,0.0,27.050000000000015,27.04999999999999,27.050000000000004,27.050000000000004,27.050000000000015,1.1648350771590544e-14,1.1842378929335002e-15,5.29,4.44,4.8675,4.869999999999999,4.44,0.3087373479189065,-0.2833333333333332
1 -> 2,0.05891300000000005,0.058913,0.05891300000000003,0.05891300000000003,0.05891300000000003,1.734723475976807e-17,1.61907524424502e-17,79.11,79.11,79.11,79.11,79.11,0.0,0.0,27.050000000000015,27.04999999999999,27.050000000000004,27.050000000000004,27.050000000000015,1.1648350771590544e-14,1.1842378929335002e-15,3.84,1.78,2.7375,2.665,1.78,0.7809089255476594,-0.6866666666666665
1 -> 2,0.05891300000000005,0.058913,0.05891300000000003,0.05891300000000003,0.05891300000000003,1.734723475976807e-17,1.61907524424502e-17,79.11,79.11,79.11,79.11,79.11,0.0,0.0,27.050000000000015,27.04999999999999,27.050000000000004,27.050000000000004,27.050000000000015,1.1648350771590544e-14,1.1842378929335002e-15,3.84,1.78,2.7375,2.665,1.78,0.7809089255476594,-0.6866666666666665
1 -> 2,0.060194000000000025,0.06019399999999998,0.060194000000000004,0.06019400000000001,0.060194000000000025,2.023017827855918e-17,9.25185853854297e-18,79.11,79.11,79.11,79.11,79.11,0.0,0.0,27.050000000000015,27.04999999999999,27.050000000000004,27.050000000000004,27.050000000000015,1.1648350771590544e-14,1.1842378929335002e-15,2.5,1.7,2.1375,2.175,1.7,0.31688917621149515,0.26666666666666666
1 -> 2,0.060194000000000025,0.06019399999999998,0.060194000000000004,0.06019400000000001,0.060194000000000025,2.023017827855918e-17,9.25185853854297e-18,79.11,79.11,79.11,79.11,79.11,0.0,0.0,27.050000000000015,27.04999999999999,27.050000000000004,27.050000000000004,27.050000000000015,1.1648350771590544e-14,1.1842378929335002e-15,2.5,1.7,2.1375,2.175,1.7,0.31688917621149515,0.26666666666666666
1 -> 2,0.060194000000000025,0.06019399999999998,0.060194000000000004,0.06019400000000001,0.060194000000000025,2.023017827855918e-17,9.25185853854297e-18,79.11,79.11,79.11,79.11,79.11,0.0,0.0,27.050000000000015,27.04999999999999,27.050000000000004,27.050000000000004,27.050000000000015,1.1648350771590544e-14,1.1842378929335002e-15,2.0,-4.79,-0.9575,-0.52,-4.79,2.572094234276808,-2.263333333333333
1 -> 2,0.060194000000000025,0.06019399999999998,0.060194000000000004,0.06019400000000001,0.060194000000000025,2.023017827855918e-17,9.25185853854297e-18,79.11,79.11,79.11,79.11,79.11,0.0,0.0,27.050000000000015,27.04999999999999,27.050000000000004,27.050000000000004,27.050000000000015,1.1648350771590544e-14,1.1842378929335002e-15,2.0,-4.79,-0.9575,-0.52,-4.79,2.572094234276808,-2.263333333333333
1 -> 2,0.060194000000000025,0.06019399999999998,0.060194000000000004,0.06019400000000001,0.060194000000000025,2.023017827855918e-17,9.25185853854297e-18,79.11,79.11,79.11,79.11,79.11,0.0,0.0,27.050000000000015,27.04999999999999,27.050000000000004,27.050000000000004,27.050000000000015,1.1648350771590544e-14,1.1842378929335002e-15,-8.42,-17.33,-13.272499999999999,-13.67,-17.33,3.3659647576883507,-2.9699999999999993
1 -> 2,0.060194000000000025,0.06019399999999998,0.060194000000000004,0.06019400000000001,0.060194000000000025,2.023017827855918e-17,9.25185853854297e-18,79.11,79.11,79.11,79.11,79.11,0.0,0.0,27.050000000000015,27.04999999999999,27.050000000000004,27.050000000000004,27.050000000000015,1.1648350771590544e-14,1.1842378929335002e-15,-8.42,-17.33,-13.272499999999999,-13.67,-17.33,3.3659647576883507,-2.9699999999999993
1 -> 2,0.060194000000000025,0.06019399999999998,0.060194000000000004,0.06019400000000001,0.060194000000000025,2.023017827855918e-17,9.25185853854297e-18,79.11,79.11,79.11,79.11,79.11,0.0,0.0,27.050000000000015,27.04999999999999,27.050000000000004,27.050000000000004,27.050000000000015,1.1648350771590544e-14,1.1842378929335002e-15,-11.85,-17.94,-15.402500000000002,-15.91,-17.94,2.3449027165321814,2.0300000000000007
1 -> 2,0.060194000000000025,0.06019399999999998,0.060194000000000004,0.06019400000000001,0.060194000000000025,2.023017827855918e-17,9.25185853854297e-18,79.11,79.11,79.11,79.11,79.11,0.0,0.0,27.050000000000015,27.04999999999999,27.050000000000004,27.050000000000004,27.050000000000015,1.1648350771590544e-14,1.1842378929335002e-15,-11.85,-17.94,-15.402500000000002,-15.91,-17.94,2.3449027165321814,2.0300000000000007
1 -> 2,0.05763200000000003,0.057632,0.05763200000000002,0.05763200000000003,0.05763200000000003,1.2509268882771003e-17,6.938893903907228e-18,79.11,79.11,79.11,79.11,79.11,0.0,0.0,27.050000000000015,27.04999999999999,27.050000000000004,27.050000000000004,27.050000000000015,1.1648350771590544e-14,1.1842378929335002e-15,-1.06,-8.67,-4.64,-4.415,-8.67,2.8464802827351536,2.5366666666666666
1 -> 2,0.05763200000000003,0.057632,0.05763200000000002,0.05763200000000003,0.05763200000000003,1.2509268882771003e-17,6.938893903907228e-18,79.11,79.11,79.11,79.11,79.11,0.0,0.0,27.050000000000015,27.04999999999999,27.050000000000004,27.050000000000004,27.050000000000015,1.1648350771590544e-14,1.1842378929335002e-15,-1.06,-8.67,-4.64,-4.415,-8.67,2.8464802827351536,2.5366666666666666
1 -> 2,0.05763200000000003,0.057632,0.05763200000000002,0.05763200000000003,0.05763200000000003,1.2509268882771003e-17,6.938893903907228e-18,79.11,79.11,79.11,79.11,79.11,0.0,0.0,27.050000000000015,27.04999999999999,27.050000000000004,27.050000000000004,27.050000000000015,1.1648350771590544e-14,1.1842378929335002e-15,2.14,0.53,1.6,1.865,0.53,0.6513447627792827,0.5266666666666666
1 -> 2,0.05763200000000003,0.057632,0.05763200000000002,0.05763200000000003,0.05763200000000003,1.2509268882771003e-17,6.938893903907228e-18,79.11,79.11,79.11,79.11,79.11,0.0,0.0,27.050000000000015,27.04999999999999,27.050000000000004,27.050000000000004,27.050000000000015,1.1648350771590544e-14,1.1842378929335002e-15,2.14,0.53,1.6,1.865,0.53,0.6513447627792827,0.5266666666666666
1 -> 2,0.05763200000000003,0.057632,0.05763200000000002,0.05763200000000003,0.05763200000000003,1.2509268882771003e-17,6.938893903907228e-18,79.11,79.11,79.11,79.11,79.11,0.0,0.0,27.050000000000015,27.04999999999999,27.050000000000004,27.050000000000004,27.050000000000015,1.1648350771590544e-14,1.1842378929335002e-15,1.66,0.04,0.78,0.71,0.04,0.6147763821097879,-0.54
1 -> 2,0.05763200000000003,0.057632,0.05763200000000002,0.05763200000000003,0.05763200000000003,1.2509268882771003e-17,6.938893903907228e-18,79.11,79.11,79.11,79.11,79.11,0.0,0.0,27.050000000000015,27.04999999999999,27.050000000000004,27.050000000000004,27.050000000000015,1.1648350771590544e-14,1.1842378929335002e-15,1.66,0.04,0.78,0.71,0.04,0.6147763821097879,-0.54
1 -> 2,0.05763200000000003,0.057632,0.05763200000000002,0.05763200000000003,0.05763200000000003,1.2509268882771003e-17,6.938893903907228e-18,79.11,79.11,79.11,79.11,79.11,0.0,0.0,27.050000000000015,27.04999999999999,27.050000000000004,27.050000000000004,27.050000000000015,1.1648350771590544e-14,1.1842378929335002e-15,0.47,-0.05,0.19749999999999998,0.185,-0.05,0.19866743568083822,0.17333333333333334
1 -> 2,0.05763200000000003,0.057632,0.05763200000000002,0.05763200000000003,0.05763200000000003,1.2509268882771003e-17,6.938893903907228e-18,79.11,79.11,79.11,79.11,79.11,0.0,0.0,27.050000000000015,27.04999999999999,27.050000000000004,27.050000000000004,27.050000000000015,1.1648350771590544e-14,1.1842378929335002e-15,0.47,-0.05,0.19749999999999998,0.185,-0.05,0.19866743568083822,0.17333333333333334
1 -> 2,0.05763200000000003,0.057632,0.05763200000000002,0.05763200000000003,0.05763200000000003,1.2509268882771003e-17,6.938893903907228e-18,79.11,79.11,79.11,79.11,79.11,0.0,0.0,27.050000000000015,27.04999999999999,27.050000000000004,27.050000000000004,27.050000000000015,1.1648350771590544e-14,1.1842378929335002e-15,0.54,0.03,0.33,0.375,0.03,0.19761072845369504,-0.17
1 -> 2,0.05763200000000003,0.057632,0.05763200000000002,0.05763200000000003,0.05763200000000003,1.2509268882771003e-17,6.938893903907228e-18,79.11,79.11,79.11,79.11,79.11,0.0,0.0,27.050000000000015,27.04999999999999,27.050000000000004,27.050000000000004,27.050000000000015,1.1648350771590544e-14,1.1842378929335002e-15,0.54,0.03,0.33,0.375,0.03,0.19761072845369504,-0.17
1 -> 2,0.05763200000000003,0.057632,0.05763200000000002,0.05763200000000003,0.05763200000000003,1.2509268882771003e-17,6.938893903907228e-18,79.11,79.11,79.11,79.11,79.11,0.0,0.0,27.050000000000015,27.04999999999999,27.050000000000004,27.050000000000004,27.050000000000015,1.1648350771590544e-14,1.1842378929335002e-15,-0.25,-1.2,-0.7024999999999999,-0.6799999999999999,-1.2,0.3529429840639986,-0.31666666666666665
1 -> 2,0.05763200000000003,0.057632,0.05763200000000002,0.05763200000000003,0.05763200000000003,1.2509268882771003e-17,6.938893903907228e-18,79.11,79.11,79.11,79.11,79.11,0.0,0.0,27.050000000000015,27.04999999999999,27.050000000000004,27.050000000000004,27.050000000000015,1.1648350771590544e-14,1.1842378929335002e-15,-0.25,-1.2,-0.7024999999999999,-0.6799999999999999,-1.2,0.3529429840639986,-0.31666666666666665
1 -> 2,0.05763200000000003,0.057632,0.05763200000000002,0.05763200000000003,0.05763200000000003,1.2509268882771003e-17,6.938893903907228e-18,79.11,79.11,79.11,79.11,79.11,0.0,0.0,27.050000000000015,27.04999999999999,27.050000000000004,27.050000000000004,27.050000000000015,1.1648350771590544e-14,1.1842378929335002e-15,-1.69,-3.77,-2.6825,-2.635,-3.77,0.7762530193177996,-0.6933333333333334
1 -> 2,0.05763200000000003,0.057632,0.05763200000000002,0.05763200000000003,0.05763200000000003,1.2509268882771003e-17,6.938893903907228e-18,79.11,79.11,79.11,79.11,79.11,0.0,0.0,27.050000000000015,27.04999999999999,27.050000000000004,27.050000000000004,27.050000000000015,1.1648350771590544e-14,1.1842378929335002e-15,-1.69,-3.77,-2.6825,-2.635,-3.77,0.7762530193177996,-0.6933333333333334
1 -> 2,0.05763200000000003,0.057632,0.05763200000000002,0.05763200000000003,0.05763200000000003,1.2509268882771003e-17,6.938893903907228e-18,79.11,79.11,79.11,79.11,79.11,0.0,0.0,27.050000000000015,27.04999999999999,27.050000000000004,27.050000000000004,27.050000000000015,1.1648350771590544e-14,1.1842378929335002e-15,-4.66,-8.0,-6.2975,-6.265000000000001,-8.0,1.2493273190001088,-1.1133333333333333
1 -> 2,0.05763200000000003,0.057632,0.05763200000000002,0.05763200000000003,0.05763200000000003,1.2509268882771003e-17,6.938893903907228e-18,79.11,79.11,79.11,79.11,79.11,0.0,0.0,27.050000000000015,27.04999999999999,27.050000000000004,27.050000000000004,27.050000000000015,1.1648350771590544e-14,1.1842378929335002e-15,-4.66,-8.0,-6.2975,-6.265000000000001,-8.0,1.2493273190001088,-1.1133333333333333
1 -> 2,0.060194000000000025,0.06019399999999998,0.060194000000000004,0.06019400000000001,0.060194000000000025,2.023017827855918e-17,9.25185853854297e-18,81.2,81.2,81.2,81.2,81.2,0.0,0.0,27.030000000000015,27.03,27.03000000000001,27.03000000000001,27.030000000000015,6.4047456679787536e-15,-1.1842378929335002e-15,-8.84,-9.49,-9.184999999999999,-9.205,-9.49,0.29278831943914746,0.03666666666666648
1 -> 2,0.060194000000000025,0.06019399999999998,0.060194000000000004,0.06019400000000001,0.060194000000000025,2.023017827855918e-17,9.25185853854297e-18,81.2,81.2,81.2,81.2,81.2,0.0,0.0,27.030000000000015,27.03,27.03000000000001,27.03000000000001,27.030000000000015,6.4047456679787536e-15,-1.1842378929335002e-15,-8.84,-9.49,-9.184999999999999,-9.205,-9.49,0.29278831943914746,0.03666666666666648
1 -> 2,0.060194000000000025,0.06019399999999998,0.060194000000000004,0.06019400000000001,0.060194000000000025,2.023017827855918e-17,9.25185853854297e-18,81.2,81.2,81.2,81.2,81.2,0.0,0.0,27.030000000000015,27.03,27.03000000000001,27.03000000000001,27.030000000000015,6.4047456679787536e-15,-1.1842378929335002e-15,-2.45,-7.73,-5.2,-5.3100000000000005,-7.73,1.975322758437213,1.76
1 -> 2,0.060194000000000025,0.06019399999999998,0.060194000000000004,0.06019400000000001,0.060194000000000025,2.023017827855918e-17,9.25185853854297e-18,81.2,81.2,81.2,81.2,81.2,0.0,0.0,27.030000000000015,27.03,27.03000000000001,27.03000000000001,27.030000000000015,6.4047456679787536e-15,-1.1842378929335002e-15,-2.45,-7.73,-5.2,-5.3100000000000005,-7.73,1.975322758437213,1.76
1 -> 2,0.060194000000000025,0.06019399999999998,0.060194000000000004,0.06019400000000001,0.060194000000000025,2.023017827855918e-17,9.25185853854297e-18,81.2,81.2,81.2,81.2,81.2,0.0,0.0,27.030000000000015,27.03,27.03000000000001,27.03000000000001,27.030000000000015,6.4047456679787536e-15,-1.1842378929335002e-15,2.38,-0.54,1.25,1.58,-0.54,1.1422565386111825,0.9733333333333333
1 -> 2,0.060194000000000025,0.06019399999999998,0.060194000000000004,0.06019400000000001,0.060194000000000025,2.023017827855918e-17,9.25185853854297e-18,81.2,81.2,81.2,81.2,81.2,0.0,0.0,27.030000000000015,27.03,27.03000000000001,27.03000000000001,27.030000000000015,6.4047456679787536e-15,-1.1842378929335002e-15,2.38,-0.54,1.25,1.58,-0.54,1.1422565386111825,0.9733333333333333
1 -> 2,0.060194000000000025,0.06019399999999998,0.060194000000000004,0.06019400000000001,0.060194000000000025,2.023017827855918e-17,9.25185853854297e-18,81.2,81.2,81.2,81.2,81.2,0.0,0.0,27.030000000000015,27.03,27.03000000000001,27.03000000000001,27.030000000000015,6.4047456679787536e-15,-1.1842378929335002e-15,2.0,0.06,0.9425,0.855,0.06,0.7405530028296422,-0.6466666666666666
1 -> 2,0.060194000000000025,0.06019399999999998,0.060194000000000004,0.06019400000000001,0.060194000000000025,2.023017827855918e-17,9.25185853854297e-18,81.2,81.2,81.2,81.2,81.2,0.0,0.0,27.030000000000015,27.03,27.03000000000001,27.03000000000001,27.030000000000015,6.4047456679787536e-15,-1.1842378929335002e-15,2.0,0.06,0.9425,0.855,0.06,0.7405530028296422,-0.6466666666666666
1 -> 2,0.05891300000000005,0.058913,0.05891300000000003,0.05891300000000003,0.05891300000000003,1.734723475976807e-17,1.61907524424502e-17,81.2,81.2,81.2,81.2,81.2,0.0,0.0,27.030000000000015,27.03,27.03000000000001,27.03000000000001,27.030000000000015,6.4047456679787536e-15,-1.1842378929335002e-15,0.53,0.07,0.3275,0.355,0.07,0.16588776326179094,0.10333333333333333
1 -> 2,0.05891300000000005,0.058913,0.05891300000000003,0.05891300000000003,0.05891300000000003,1.734723475976807e-17,1.61907524424502e-17,81.2,81.2,81.2,81.2,81.2,0.0,0.0,27.030000000000015,27.03,27.03000000000001,27.03000000000001,27.030000000000015,6.4047456679787536e-15,-1.1842378929335002e-15,0.53,0.07,0.3275,0.355,0.07,0.16588776326179094,0.10333333333333333
1 -> 2,0.05891300000000005,0.058913,0.05891300000000003,0.05891300000000003,0.05891300000000003,1.734723475976807e-17,1.61907524424502e-17,81.2,81.2,81.2,81.2,81.2,0.0,0.0,27.030000000000015,27.03,27.03000000000001,27.03000000000001,27.030000000000015,6.4047456679787536e-15,-1.1842378929335002e-15,-0.31,-4.57,-2.35,-2.26,-4.57,1.601671002422158,-1.42
1 -> 2,0.05891300000000005,0.058913,0.05891300000000003,0.05891300000000003,0.05891300000000003,1.734723475976807e-17,1.61907524424502e-17,81.2,81.2,81.2,81.2,81.2,0.0,0.0,27.030000000000015,27.03,27.03000000000001,27.03000000000001,27.030000000000015,6.4047456679787536e-15,-1.1842378929335002e-15,-0.31,-4.57,-2.35,-2.26,-4.57,1.601671002422158,-1.42
1 -> 2,0.05891300000000005,0.058913,0.05891300000000003,0.05891300000000003,0.05891300000000003,1.734723475976807e-17,1.61907524424502e-17,81.2,81.2,81.2,81.2,81.2,0.0,0.0,27.030000000000015,27.03,27.03000000000001,27.03000000000001,27.030000000000015,6.4047456679787536e-15,-1.1842378929335002e-15,-5.15,-6.41,-5.890000000000001,-6.0,-6.41,0.4801562245769599,0.21666666666666648
1 -> 2,0.05891300000000005,0.058913,0.05891300000000003,0.05891300000000003,0.05891300000000003,1.734723475976807e-17,1.61907524424502e-17,81.2,81.2,81.2,81.2,81.2,0.0,0.0,27.030000000000015,27.03,27.03000000000001,27.03000000000001,27.030000000000015,6.4047456679787536e-15,-1.1842378929335002e-15,-5.15,-6.41,-5.890000000000001,-6.0,-6.41,0.4801562245769599,0.21666666666666648
1 -> 2,0.05891300000000005,0.058913,0.05891300000000003,0.05891300000000003,0.05891300000000003,1.734723475976807e-17,1.61907524424502e-17,81.2,81.2,81.2,81.2,81.2,0.0,0.0,27.030000000000015,27.03,27.03000000000001,27.03000000000001,27.030000000000015,6.4047456679787536e-15,-1.1842378929335002e-15,1.98,-3.46,-0.6175,-0.495,-3.46,2.044460503409151,1.8133333333333332
1 -> 2,0.05891300000000005,0.058913,0.05891300000000003,0.05891300000000003,0.05891300000000003,1.734723475976807e-17,1.61907524424502e-17,81.2,81.2,81.2,81.2,81.2,0.0,0.0,27.030000000000015,27.03,27.03000000000001,27.03000000000001,27.030000000000015,6.4047456679787536e-15,-1.1842378929335002e-15,1.98,-3.46,-0.6175,-0.495,-3.46,2.044460503409151,1.8133333333333332
1 -> 2,0.05891300000000005,0.058913,0.05891300000000003,0.05891300000000003,0.05891300000000003,1.734723475976807e-17,1.61907524424502e-17,81.2,81.2,81.2,81.2,81.2,0.0,0.0,27.030000000000015,27.03,27.03000000000001,27.03000000000001,27.030000000000015,6.4047456679787536e-15,-1.1842378929335002e-15,3.19,2.68,2.9475,2.96,2.68,0.18565761497983319,-0.07333333333333325
1 -> 2,0.05891300000000005,0.058913,0.05891300000000003,0.05891300000000003,0.05891300000000003,1.734723475976807e-17,1.61907524424502e-17,81.2,81.2,81.2,81.2,81.2,0.0,0.0,27.030000000000015,27.03,27.03000000000001,27.03000000000001,27.030000000000015,6.4047456679787536e-15,-1.1842378929335002e-15,3.19,2.68,2.9475,2.96,2.68,0.18565761497983319,-0.07333333333333325
1 -> 2,0.05891300000000005,0.058913,0.05891300000000003,0.05891300000000003,0.05891300000000003,1.734723475976807e-17,1.61907524424502e-17,81.2,81.2,81.2,81.2,81.2,0.0,0.0,27.030000000000015,27.03,27.03000000000001,27.03000000000001,27.030000000000015,6.4047456679787536e-15,-1.1842378929335002e-15,5.7,2.51,3.7474999999999996,3.3899999999999997,2.51,1.2410756423361151,1.0633333333333335
1 -> 2,0.05891300000000005,0.058913,0.05891300000000003,0.05891300000000003,0.05891300000000003,1.734723475976807e-17,1.61907524424502e-17,81.2,81.2,81.2,81.2,81.2,0.0,0.0,27.030000000000015,27.03,27.03000000000001,27.03000000000001,27.030000000000015,6.4047456679787536e-15,-1.1842378929335002e-15,5.7,2.51,3.7474999999999996,3.3899999999999997,2.51,1.2410756423361151,1.0633333333333335
1 -> 2,0.05891300000000005,0.058913,0.05891300000000003,0.05891300000000003,0.05891300000000003,1.734723475976807e-17,1.61907524424502e-17,81.2,81.2,81.2,81.2,81.2,0.0,0.0,27.030000000000015,27.03,27.03000000000001,27.03000000000001,27.030000000000015,6.4047456679787536e-15,-1.1842378929335002e-15,15.0,8.0,11.6025,11.705,8.0,2.617158525959022,2.3333333333333335
1 -> 2,0.05891300000000005,0.058913,0.05891300000000003,0.05891300000000003,0.05891300000000003,1.734723475976807e-17,1.61907524424502e-17,81.2,81.2,81.2,81.2,81.2,0.0,0.0,27.030000000000015,27.03,27.03000000000001,27.03000000000001,27.030000000000015,6.4047456679787536e-15,-1.1842378929335002e-15,15.0,8.0,11.6025,11.705,8.0,2.617158525959022,2.3333333333333335
1 -> 2,0.05891300000000005,0.058913,0.05891300000000003,0.05891300000000003,0.05891300000000003,1.734723475976807e-17,1.61907524424502e-17,81.2,81.2,81.2,81.2,81.2,0.0,0.0,27.030000000000015,27.03,27.03000000000001,27.03000000000001,27.030000000000015,6.4047456679787536e-15,-1.1842378929335002e-15,19.62,16.73,18.3975,18.62,16.73,1.103865367696623,0.9633333333333335
1 -> 2,0.05891300000000005,0.058913,0.05891300000000003,0.05891300000000003,0.05891300000000003,1.734723475976807e-17,1.61907524424502e-17,81.2,81.2,81.2,81.2,81.2,0.0,0.0,27.030000000000015,27.03,27.03000000000001,27.03000000000001,27.030000000000015,6.4047456679787536e-15,-1.1842378929335002e-15,19.62,16.73,18.3975,18.62,16.73,1.103865367696623,0.9633333333333335
